time(s),bvp,eda,hr,x,y,z,LABEL
10.0,-19.96,1.553661,52.0,25.375,4.75,59.25,0
10.25,-29.3,1.581831,52.0,25.5,5.0,58.625,0
10.5,-10.06,1.622807,52.0,24.125,3.875,59.5,0
10.75,-5.77,1.6560990000000002,52.0,28.0,0.25,61.875,0
11.0,37.6,1.6804279999999998,52.0,41.875,28.5,34.375,0
11.25,25.91,1.7098799999999998,52.0,32.25,17.75,44.375,0
11.5,-1.88,1.827684,52.0,46.5,9.5,55.75,0
11.75,89.39,1.92372,52.0,33.625,9.5,53.875,0
12.0,56.78,2.019756,55.0,34.625,9.75,52.875,0
12.25,-13.83,2.054529,55.0,35.375,9.875,53.25,0
12.5,-56.65,2.0788580000000003,55.0,36.5,8.875,53.0,0
12.75,-140.96,2.109589,55.0,37.25,7.0,52.25,0
13.0,128.72,2.096785,56.25,36.5,7.0,52.625,0
13.25,8.61,2.062212,56.25,36.375,6.875,52.875,0
13.5,-14.07,2.017395,56.25,37.0,7.375,52.375,0
13.75,-41.16,1.968736,56.25,37.875,8.125,52.75,0
14.0,39.37,1.97898,55.6,37.375,8.375,52.5,0
14.25,-36.88,2.009712,55.6,35.5,5.75,51.875,0
14.5,2.61,2.044285,55.6,63.125,20.5,22.75,0
14.75,9.67,2.086541,55.6,27.0,38.625,16.625,0
15.0,-16.23,2.0391630000000003,60.17,31.25,56.25,10.625,0
15.25,32.83,2.044285,60.17,30.5,53.125,10.625,0
15.5,20.91,2.012273,60.17,34.5,50.75,11.125,0
15.75,50.12,2.0058700000000003,60.17,35.625,54.125,10.0,0
16.0,-170.6,1.987944,64.57,37.625,50.375,11.125,0
16.25,8.59,1.946968,64.57,31.0,54.5,12.75,0
16.5,-132.2,1.903432,64.57,31.25,52.75,14.25,0
16.75,71.1,1.849651,64.57,34.125,55.25,15.75,0
17.0,6.67,1.858615,68.38,27.0,52.5,12.75,0
17.25,37.48,1.838127,68.38,30.875,53.625,14.0,0
17.5,-6.24,1.795871,68.38,30.375,54.5,12.75,0
17.75,-63.73,1.7408099999999995,68.38,27.625,53.125,12.5,0
18.0,-34.46,1.599957,71.22,33.25,49.375,7.75,0
18.25,-112.83,1.658859,71.22,41.875,54.625,6.125,0
18.5,111.62,1.6601400000000002,71.22,39.0,50.75,9.0,0
18.75,27.75,1.638372,71.22,38.125,48.125,13.125,0
19.0,12.17,1.617884,73.7,44.625,60.75,17.625,0
19.25,184.54,1.616603,73.7,14.125,41.875,28.125,0
19.5,-225.48,1.625567,73.7,-14.375,49.25,35.75,0
19.75,48.17,1.432214,73.7,-47.375,34.5,26.375,0
20.0,-165.88,1.556222,75.82,-53.25,25.625,25.0,0
20.25,133.11,1.603599,75.82,-61.375,13.875,10.75,0
20.5,5.07,1.6317700000000002,75.82,-65.75,10.625,-11.75,0
20.75,63.74,1.615124,75.82,-64.75,-3.625,-6.625,0
21.0,21.85,1.620246,77.67,-58.125,4.875,26.0,0
21.25,-158.78,1.6458549999999998,77.67,-2.125,51.875,31.375,0
21.5,-73.54,1.462746,77.67,22.625,36.125,53.0,0
21.75,156.61,1.519088,77.67,-14.0,43.25,47.25,0
22.0,239.49,1.333418,79.08,-43.625,30.5,29.125,0
22.25,-107.69,1.535734,79.08,-61.375,16.125,9.375,0
22.5,46.66,1.585673,79.08,-51.125,17.375,-2.25,0
22.75,-23.78,1.47299,79.08,37.125,15.5,35.625,0
23.0,-18.52,1.467868,80.14,77.0,12.0,51.875,0
23.25,-62.62,1.681709,80.14,20.875,-16.75,49.875,0
23.5,-69.28,1.859696,80.14,39.5,2.25,52.625,0
23.75,-23.99,1.884025,80.14,40.875,-2.5,51.125,0
24.0,139.5,1.898111,80.8,32.5,-5.25,55.875,0
24.25,-13.08,1.901952,80.8,25.25,-8.5,58.0,0
24.5,-42.61,1.931403,80.8,33.5,-1.875,55.5,0
24.75,-25.63,1.908354,80.8,34.125,-3.75,55.375,0
25.0,-16.59,1.892989,81.25,35.375,-2.5,54.125,0
25.25,-35.41,1.887867,81.25,35.375,-1.875,54.125,0
25.5,73.1,1.872501,81.25,35.625,-1.875,54.0,0
25.75,135.29,1.866098,81.25,35.875,-2.0,54.0,0
26.0,-2.58,1.857135,81.88,35.875,-1.75,54.0,0
26.25,-148.55,1.848172,81.88,36.0,-2.0,54.0,0
26.5,20.44,1.835367,81.88,35.875,-2.0,54.0,0
26.75,-20.69,1.828964,81.88,36.0,-2.0,54.0,0
27.0,8.07,1.820001,82.33,36.0,-1.875,54.0,0
27.25,-15.36,1.81744,82.33,36.0,-2.0,53.75,0
27.5,14.4,1.808477,82.33,36.0,-1.875,53.625,0
27.75,-9.22,1.8007939999999998,82.33,36.125,-1.75,53.75,0
28.0,19.92,1.787989,82.74,36.0,-1.875,53.875,0
28.25,-11.1,1.7867080000000002,82.74,36.125,-1.75,53.625,0
28.5,19.23,1.7790259999999998,82.74,36.125,-2.0,53.75,0
28.75,1.11,1.773904,82.74,36.125,-2.0,53.75,0
29.0,10.2,1.7700619999999998,83.1,36.125,-1.875,53.5,0
29.25,-11.77,1.7662209999999998,83.1,36.125,-2.0,53.75,0
29.5,8.76,1.755977,83.1,36.25,-2.0,53.75,0
29.75,-10.17,1.757257,83.1,36.375,-2.0,53.625,0
30.0,2.05,1.755977,83.43,36.625,-2.25,53.5,0
30.25,-4.1,1.7495740000000002,83.43,36.25,-2.125,53.875,0
30.5,-7.23,1.7482939999999998,83.43,36.5,-2.0,53.625,0
30.75,-8.23,1.7418919999999998,83.43,36.0,-2.0,53.375,0
31.0,14.32,1.7354889999999998,83.77,36.375,-2.0,53.5,0
31.25,8.75,1.7278060000000002,83.77,36.25,-2.0,53.5,0
31.5,4.27,1.7265259999999998,83.77,36.25,-2.0,53.375,0
31.75,-0.52,1.725245,83.77,43.5,-12.875,65.25,0
32.0,-5.45,1.7354889999999998,84.17,29.125,44.25,32.0,0
32.25,-9.15,1.812318,84.17,0.75,34.5,35.375,0
32.5,-6.31,1.703477,84.17,4.75,48.875,40.625,0
32.75,-46.57,1.681709,84.17,-0.25,49.0,39.25,0
33.0,-138.06,1.6458549999999998,84.42,-15.5,47.375,40.125,0
33.25,469.3,1.585673,84.42,-31.375,42.875,33.5,0
33.5,139.96,1.5792700000000002,84.42,-24.375,45.375,36.125,0
33.75,-400.78,1.624087,84.42,-22.25,47.5,37.125,0
34.0,-272.83,1.615124,84.8,-21.5,45.125,36.125,0
34.25,216.4,1.621526,84.8,-15.375,44.875,26.625,0
34.5,224.41,1.6279290000000002,84.8,24.875,34.0,17.375,0
34.75,-41.05,1.634331,84.8,83.375,18.125,-33.0,0
35.0,-65.47,1.5511,85.19,45.375,4.875,-42.25,0
35.25,-21.74,1.6279290000000002,85.19,43.625,6.625,-50.0,0
35.5,17.26,1.618965,85.19,41.75,6.125,-48.5,0
35.75,-95.87,1.624087,85.19,41.375,7.5,-51.25,0
36.0,67.36,1.626648,85.3,42.875,6.125,-45.0,0
36.25,15.16,1.6714650000000002,85.3,45.75,6.375,-44.5,0
36.5,-85.71,1.569026,85.3,45.5,10.875,-44.25,0
36.75,50.05,1.530612,85.3,43.625,9.875,-46.25,0
37.0,-48.79,1.524209,85.36,44.125,8.875,-46.5,0
37.25,-59.3,1.522929,85.36,43.5,8.625,-46.5,0
37.5,9.83,1.520368,85.36,44.375,8.75,-46.125,0
37.75,362.56,1.52549,85.36,43.75,9.0,-46.625,0
38.0,292.48,1.530612,85.24,43.5,9.25,-47.125,0
38.25,14.91,1.530612,85.24,43.0,8.125,-47.625,0
38.5,-87.56,1.542136,85.24,44.5,6.625,-45.875,0
38.75,1.68,1.542136,85.24,45.125,6.0,-45.875,0
39.0,-198.17,1.544697,85.4,44.75,6.25,-46.75,0
39.25,-64.38,1.545978,85.4,44.5,6.625,-46.5,0
39.5,13.49,1.543417,85.4,45.375,6.0,-45.875,0
39.75,147.34,1.538295,85.4,45.875,5.75,-44.875,0
40.0,-63.13,1.533173,85.45,45.25,6.125,-45.875,0
40.25,-93.49,1.533173,85.45,45.0,6.875,-45.375,0
40.5,81.58,1.528051,85.45,44.75,7.125,-46.375,0
40.75,33.44,1.522929,85.45,44.875,6.875,-46.375,0
41.0,-1.44,1.519088,84.88,43.875,5.375,-46.5,0
41.25,-76.37,1.52549,84.88,43.5,7.5,-47.625,0
41.5,11.17,1.521649,84.88,44.75,7.5,-45.5,0
41.75,-53.95,1.533173,84.88,45.625,7.5,-45.0,0
42.0,-28.79,1.547258,84.33,45.0,7.625,-45.75,0
42.25,114.98,1.543417,84.33,45.0,8.375,-45.75,0
42.5,-14.82,1.540856,84.33,44.75,8.75,-45.75,0
42.75,184.75,1.548539,84.33,48.125,7.875,-42.375,0
43.0,-128.32,1.558783,83.79,50.5,8.125,-39.375,0
43.25,-148.07,1.571587,83.79,46.375,8.875,-45.25,0
43.5,99.54,1.566465,83.79,46.0,10.625,-44.625,0
43.75,1.72,1.626648,83.79,52.875,7.5,-37.75,0
44.0,27.49,1.5946360000000002,83.29,56.625,9.75,-32.5,1
44.25,-94.5,1.562624,83.29,59.25,7.75,-25.375,1
44.5,-167.81,1.55238,83.29,62.25,6.875,-17.0,1
44.75,-24.5,1.521649,83.29,64.25,6.0,-12.5,1
45.0,459.13,1.508844,82.83,63.375,5.75,-15.375,1
45.25,219.77,1.492197,82.83,63.125,6.25,-17.125,1
45.5,-148.99,1.490917,82.83,63.625,7.0,-17.375,1
45.75,-193.47,1.496039,82.83,62.125,5.875,-16.875,1
46.0,-64.87,1.549819,82.35,61.5,7.75,-24.0,1
46.25,-6.86,1.538295,82.35,61.125,7.625,-22.0,1
46.5,20.18,1.537014,82.35,62.125,6.5,-19.5,1
46.75,-50.2,1.5792700000000002,82.35,61.5,7.625,-21.75,1
47.0,70.76,1.588234,81.89,61.125,7.875,-22.625,1
47.25,-1.08,1.595917,81.89,61.375,7.25,-22.0,1
47.5,12.12,1.593356,81.89,61.875,7.0,-21.125,1
47.75,105.69,1.593356,81.89,61.75,7.0,-21.125,1
48.0,-20.19,1.592075,81.46,61.5,7.0,-21.25,0
48.25,55.24,1.584392,81.46,61.625,7.375,-21.75,0
48.5,-10.76,1.569026,81.46,61.75,7.25,-21.5,0
48.75,29.32,1.557502,81.46,61.375,7.375,-19.75,0
49.0,-115.11,1.553661,81.03,61.25,6.25,-21.625,0
49.25,24.01,1.55238,81.03,61.125,8.0,-23.375,0
49.5,49.01,1.5511,81.03,61.0,8.25,-22.75,0
49.75,10.69,1.554941,81.03,60.875,8.0,-23.125,0
50.0,160.46,1.547258,80.66,61.0,8.0,-23.0,0
50.25,11.01,1.542136,80.66,61.0,8.0,-23.0,0
50.5,-17.35,1.540856,80.66,61.0,8.0,-23.125,0
50.75,-26.27,1.553661,80.66,61.0,8.125,-23.0,0
51.0,-8.61,1.567746,80.29,61.0,8.0,-23.0,0
51.25,-5.15,1.586953,80.29,61.0,8.0,-23.0,0
51.5,-3.71,1.602319,80.29,61.0,8.0,-22.75,0
51.75,-2.68,1.6164040000000002,80.29,61.0,8.0,-22.75,0
52.0,-0.74,1.620246,79.56,62.375,7.25,-22.75,0
52.25,-3.67,1.625368,79.56,71.375,11.125,11.0,0
52.5,-5.12,1.6676240000000002,79.56,15.625,38.375,33.25,0
52.75,-0.07,1.73677,79.56,31.75,13.875,48.625,0
53.0,-3.47,1.620246,78.86,33.75,-8.0,56.75,0
53.25,-2.35,1.60488,78.86,25.5,-3.5,60.0,0
53.5,15.99,1.549819,78.86,13.25,-1.875,62.5,0
53.75,106.52,1.487075,78.86,8.25,-4.125,63.375,0
54.0,-104.03,1.373112,78.62,14.5,-2.25,61.0,0
54.25,69.57,1.319332,78.62,9.625,-2.625,63.625,0
54.5,37.96,1.458905,78.62,13.375,-2.5,62.875,0
54.75,-14.83,1.467868,78.62,13.75,-2.0,63.375,0
55.0,-38.83,1.485795,78.43,7.75,-4.75,64.25,0
55.25,65.41,1.327015,78.43,12.875,-0.5,62.25,0
55.5,-154.77,1.47171,78.43,15.625,1.0,62.0,0
55.75,-7.68,1.533173,78.43,13.75,0.25,64.125,0
56.0,-50.18,1.5267700000000002,78.19,15.625,3.625,61.375,0
56.25,12.66,1.5267700000000002,78.19,5.25,-0.125,63.875,0
56.5,101.63,1.476832,78.19,13.0,0.0,63.25,0
56.75,-135.1,1.432015,78.19,17.375,4.625,60.75,0
57.0,-45.01,1.4461,78.04,17.75,7.625,61.75,0
57.25,32.11,1.522929,78.04,24.75,11.25,58.375,0
57.5,-123.86,1.540856,78.04,17.25,6.0,61.25,0
57.75,52.8,1.539575,78.04,20.5,8.25,60.5,0
58.0,274.49,1.544697,77.88,20.0,8.0,60.875,0
58.25,-12.2,1.543417,77.88,20.125,8.0,60.625,0
58.5,-27.51,1.544697,77.88,18.125,7.375,61.25,0
58.75,75.45,1.545978,77.88,18.625,7.625,60.875,0
59.0,-5.75,1.547258,77.72,18.625,7.5,61.0,0
59.25,4.52,1.548539,77.72,18.875,7.625,61.0,0
59.5,30.82,1.540856,77.72,18.875,7.875,61.0,0
59.75,-101.26,1.543417,77.72,18.625,7.75,61.0,0
60.0,-19.59,1.544697,77.55,18.75,8.0,61.375,0
60.25,-7.96,1.538295,77.55,18.625,7.875,61.625,0
60.5,3.5,1.538295,77.55,18.75,7.75,60.625,0
60.75,-2.56,1.535734,77.55,19.875,7.625,60.625,0
61.0,-0.18,1.531892,77.44,20.875,8.0,60.25,0
61.25,5.45,1.5267700000000002,77.44,21.625,8.5,60.125,0
61.5,6.03,1.528051,77.44,20.5,9.0,60.375,0
61.75,-1.35,1.512685,77.44,15.375,5.125,61.5,0
62.0,-15.31,1.510124,77.32,15.125,7.25,62.125,0
62.25,-20.57,1.52549,77.32,16.5,5.25,62.0,0
62.5,-30.08,1.5267700000000002,77.32,16.25,5.125,61.75,0
62.75,30.78,1.524209,77.32,13.375,4.5,63.5,0
63.0,-27.04,1.483234,77.24,13.75,5.5,61.75,0
63.25,-66.11,1.479393,77.24,12.5,6.25,62.125,0
63.5,-35.12,1.492197,77.24,14.375,7.0,62.625,0
63.75,52.9,1.501161,77.24,16.5,8.125,61.5,0
64.0,-111.2,1.497319,77.13,17.0,5.375,61.875,0
64.25,222.36,1.496039,77.13,42.125,15.875,68.125,0
64.5,-34.26,1.449942,77.13,-20.375,37.375,20.75,0
64.75,-80.87,1.367991,77.13,-61.5,21.625,6.25,0
65.0,-25.81,1.335979,76.95,-61.625,17.0,9.0,0
65.25,-102.93,1.309088,76.95,-48.25,25.25,33.125,0
65.5,35.37,1.316771,76.95,-38.375,29.625,41.875,0
65.75,76.57,1.383356,76.95,-40.5,32.0,39.25,0
66.0,45.65,1.384637,76.72,-33.625,30.75,31.75,0
66.25,106.36,1.408966,76.72,5.125,29.375,54.375,0
66.5,-95.81,1.396161,76.72,4.875,-11.125,70.625,0
66.75,-30.21,1.475551,76.72,1.75,4.875,66.625,0
67.0,120.48,1.470429,76.66,18.125,14.125,62.25,0
67.25,-11.41,1.484514,76.66,21.25,11.25,60.0,0
67.5,-89.81,1.502441,76.66,31.625,10.625,58.0,0
67.75,-139.26,1.508844,76.66,25.75,22.5,41.0,0
68.0,-22.49,1.511405,76.58,55.375,12.375,48.375,0
68.25,149.64,1.464027,76.58,35.375,15.5,55.25,0
68.5,-16.11,1.489636,76.58,28.625,4.875,52.375,0
68.75,77.9,1.497319,76.58,31.75,2.0,58.125,0
69.0,-100.83,1.521649,76.47,32.5,3.25,54.75,0
69.25,-150.61,1.52549,76.47,35.375,2.5,54.375,0
69.5,356.38,1.539575,76.47,36.0,2.25,53.75,0
69.75,-71.05,1.539575,76.47,35.625,1.625,54.0,0
70.0,151.31,1.543417,76.82,36.0,1.75,53.75,0
70.25,-84.76,1.543417,76.82,36.0,1.875,53.625,0
70.5,-0.44,1.539575,76.82,36.125,2.0,53.5,0
70.75,-17.81,1.533173,76.82,36.125,2.125,53.5,0
71.0,-20.91,1.529331,77.15,36.5,2.375,53.375,0
71.25,7.57,1.520368,77.15,36.375,2.5,53.625,0
71.5,-13.62,1.516527,77.15,36.0,2.25,53.125,0
71.75,-9.25,1.516527,77.15,36.0,2.25,53.5,0
72.0,4.51,1.502441,77.33,36.25,2.25,53.625,0
72.25,-0.37,1.501161,77.33,36.25,2.5,53.5,0
72.5,-9.66,1.488356,77.33,36.875,2.75,53.0,0
72.75,-6.2,1.483234,77.33,36.375,2.875,53.25,0
73.0,1.01,1.480673,77.53,36.5,3.0,53.125,0
73.25,-2.79,1.481954,77.53,36.5,2.875,53.25,0
73.5,15.11,1.478112,77.53,36.5,3.0,53.125,0
73.75,-20.86,1.474271,77.53,36.375,3.0,53.125,0
74.0,-11.81,1.466588,77.78,36.375,2.875,53.125,0
74.25,1.29,1.462746,77.78,36.625,3.0,53.0,0
74.5,-0.23,1.464027,77.78,36.25,2.875,53.25,0
74.75,-1.77,1.464027,77.78,36.125,3.0,53.375,0
75.0,-5.3,1.458905,77.63,36.25,2.375,53.375,0
75.25,-0.41,1.456344,77.63,36.0,2.125,53.25,0
75.5,-1.35,1.449942,77.63,36.25,2.125,53.125,0
75.75,-4.13,1.442259,77.63,36.0,2.0,53.5,0
76.0,1.46,1.44482,77.3,36.125,2.0,53.375,0
76.25,-4.3,1.443539,77.3,36.0,2.125,53.5,0
76.5,2.63,1.440978,77.3,36.375,2.0,53.375,0
76.75,-4.52,1.432015,77.3,36.125,2.0,53.25,0
77.0,0.75,1.430734,76.92,36.25,2.125,53.25,0
77.25,-7.42,1.424332,76.92,36.375,2.0,53.25,0
77.5,-3.0,1.430734,76.92,36.75,2.75,53.125,0
77.75,-8.82,1.424332,76.92,36.625,2.75,53.125,0
78.0,6.26,1.423051,76.62,36.875,3.0,53.0,0
78.25,-12.46,1.412807,76.62,37.0,3.0,53.0,0
78.5,8.8,1.414088,76.62,36.875,2.875,53.0,0
78.75,-17.92,1.410246,76.62,37.0,3.0,53.0,0
79.0,3.93,1.414088,76.3,36.625,2.875,53.0,0
79.25,-6.88,1.414088,76.3,36.25,2.625,53.375,0
79.5,8.63,1.416649,76.3,36.5,3.0,53.125,0
79.75,-8.44,1.411527,76.3,36.375,2.875,53.25,0
80.0,4.64,1.408966,76.02,37.25,3.0,53.0,0
80.25,-16.76,1.403844,76.02,37.25,3.0,52.75,0
80.5,34.21,1.405125,76.02,36.875,2.875,53.0,0
80.75,16.94,1.400003,76.02,36.875,3.0,53.0,0
81.0,38.94,1.400003,75.72,37.0,3.0,53.0,0
81.25,0.65,1.403844,75.72,37.0,2.75,53.0,0
81.5,-3.24,1.403844,75.72,37.0,3.0,53.0,0
81.75,-4.56,1.397442,75.72,37.0,3.0,53.0,0
82.0,10.22,1.401283,75.43,37.0,3.0,53.0,0
82.25,8.26,1.396161,75.43,37.375,3.125,52.75,0
82.5,14.06,1.391039,75.43,37.5,2.75,53.0,0
82.75,4.82,1.385917,75.43,37.5,3.0,52.5,0
83.0,10.88,1.382076,75.17,37.375,2.75,52.625,0
83.25,9.28,1.375673,75.17,37.5,3.0,52.875,0
83.5,20.64,1.379515,75.17,37.5,3.0,52.875,0
83.75,1.54,1.374393,75.17,37.625,3.25,52.25,0
84.0,19.81,1.371832,75.23,37.625,3.25,52.75,0
84.25,8.99,1.361588,75.23,37.625,3.125,52.375,0
84.5,2.28,1.357747,75.23,37.25,3.25,52.875,0
84.75,-4.55,1.361588,75.23,36.625,3.625,52.875,0
85.0,-2.77,1.360308,75.37,37.125,3.625,53.0,0
85.25,-1.22,1.355186,75.37,37.0,3.5,53.0,0
85.5,-26.77,1.357747,75.37,37.0,3.125,53.0,0
85.75,9.0,1.344942,75.37,37.0,3.625,52.875,0
86.0,28.15,1.342381,75.48,37.0,3.5,53.0,0
86.25,-2.66,1.338539,75.48,37.0,3.375,52.75,0
86.5,7.59,1.335979,75.48,36.875,3.125,53.0,0
86.75,6.84,1.334698,75.48,37.0,3.375,53.0,0
87.0,11.87,1.330857,75.62,36.875,3.125,53.0,0
87.25,-10.08,1.324454,75.62,37.0,3.375,53.0,0
87.5,0.21,1.324454,75.62,37.125,3.25,52.875,0
87.75,-13.97,1.321893,75.62,37.0,3.625,52.875,0
88.0,-3.71,1.315491,75.77,37.125,3.625,52.75,0
88.25,-5.94,1.315491,75.77,37.125,3.875,53.0,0
88.5,7.12,1.307808,75.77,37.125,3.75,52.875,0
88.75,1.0,1.3052469999999998,75.77,37.25,4.0,52.75,0
89.0,-0.63,1.302686,75.95,37.0,3.75,53.0,0
89.25,-12.54,1.295003,75.95,37.125,3.5,52.875,0
89.5,0.29,1.296283,75.95,37.375,3.625,52.625,0
89.75,-7.23,1.296283,75.95,37.375,3.625,52.625,0
90.0,-0.49,1.288601,76.12,37.375,3.875,52.75,0
90.25,-10.05,1.282198,76.12,37.625,3.875,52.625,0
90.5,5.15,1.278357,76.12,37.75,3.875,52.75,0
90.75,-7.58,1.277076,76.12,37.5,4.0,52.625,0
91.0,3.62,1.271954,76.27,37.375,3.75,52.75,0
91.25,-6.7,1.271954,76.27,37.25,3.875,52.875,0
91.5,-2.5,1.2681129999999998,76.27,37.0,3.5,53.0,0
91.75,-5.75,1.262991,76.27,37.25,3.5,52.75,0
92.0,2.17,1.261711,76.28,37.5,3.5,52.625,0
92.25,-1.39,1.255308,76.28,37.0,3.625,53.0,0
92.5,6.04,1.256589,76.28,37.5,3.875,53.0,0
92.75,4.96,1.255308,76.28,37.125,3.625,52.75,0
93.0,6.75,1.250186,76.33,37.625,3.25,52.75,0
93.25,-2.67,1.239942,76.33,41.25,-2.25,59.875,0
93.5,-0.69,1.242503,76.33,38.75,13.5,32.0,0
93.75,-5.7,1.262991,76.33,49.75,0.5,49.5,0
94.0,-12.88,1.247625,76.33,43.25,-5.0,47.375,0
94.25,-53.05,1.2386620000000002,76.33,46.875,-7.0,44.75,0
94.5,-36.66,1.232259,76.33,48.25,-11.25,43.25,0
94.75,130.41,1.229698,76.33,47.375,-11.25,43.375,0
95.0,4.75,1.225857,76.33,48.125,-8.875,43.25,0
95.25,86.4,1.229698,76.33,45.375,-3.75,45.75,0
95.5,-60.86,1.246345,76.33,26.5,2.25,57.75,0
95.75,13.39,1.261711,76.33,34.25,-1.75,55.0,0
96.0,76.76,1.265552,76.48,36.625,-0.5,53.375,0
96.25,-4.09,1.2681129999999998,76.48,37.375,0.25,53.25,0
96.5,-75.06,1.274515,76.48,36.5,-0.5,53.25,0
96.75,223.08,1.273235,76.48,37.375,0.0,53.0,0
97.0,-143.85,1.279637,76.87,38.5,1.0,54.0,0
97.25,-38.55,1.284759,76.87,37.375,0.5,50.875,0
97.5,-17.66,1.297564,76.87,37.875,3.5,51.0,0
97.75,-8.5,1.306527,76.87,42.375,4.75,48.625,0
98.0,9.17,1.311649,77.37,43.5,3.125,48.5,0
98.25,37.37,1.319332,77.37,43.5,4.0,47.75,0
98.5,-37.18,1.330857,77.37,42.625,1.5,48.125,0
98.75,15.86,1.343661,77.37,44.125,4.0,47.125,0
99.0,-165.47,1.338539,77.78,67.75,2.625,49.0,0
99.25,-69.99,1.346222,77.78,27.0,31.625,10.875,0
99.5,184.19,1.325735,77.78,-13.25,31.125,38.75,0
99.75,-70.22,1.291162,77.78,-18.0,43.375,45.0,0
100.0,-80.32,1.291162,78.18,-5.75,45.25,43.75,0
100.25,-116.05,1.265552,78.18,-9.875,45.125,42.25,0
100.5,388.05,1.251467,78.18,-18.5,46.75,38.875,0
100.75,-128.51,1.265552,78.18,-13.75,40.5,35.125,0
101.0,-96.62,1.266832,78.93,15.0,48.375,26.625,0
101.25,42.4,1.262991,78.93,58.5,28.75,29.625,0
101.5,69.49,1.270674,78.93,51.875,3.25,42.25,0
101.75,130.44,1.289881,78.93,43.375,-2.875,52.5,0
102.0,-60.45,1.296283,79.67,42.125,0.25,49.375,0
102.25,-137.87,1.296283,79.67,44.5,0.0,47.5,0
102.5,-133.07,1.302686,79.67,44.25,0.75,47.25,0
102.75,76.56,1.31293,79.67,44.125,0.75,47.75,0
103.0,241.69,1.316771,80.4,44.0,1.0,47.25,0
103.25,-70.5,1.327015,80.4,44.125,1.0,47.5,0
103.5,-49.78,1.343661,80.4,44.375,1.0,47.75,0
103.75,-5.86,1.36543,80.4,44.0,1.125,47.625,0
104.0,-13.66,1.39232,81.12,44.25,1.125,47.125,0
104.25,-17.77,1.414088,81.12,44.125,1.5,47.25,0
104.5,-3.36,1.435856,81.12,44.375,1.5,47.125,0
104.75,-0.64,1.44482,81.12,44.625,1.625,47.0,0
105.0,-0.47,1.439698,81.82,45.5,2.375,46.25,0
105.25,1.25,1.443539,81.82,47.25,4.625,44.875,0
105.5,-1.25,1.448661,81.82,46.25,3.5,44.5,0
105.75,5.83,1.423051,81.82,48.125,4.5,43.25,0
106.0,16.31,1.426893,82.52,49.625,5.375,42.25,0
106.25,-11.63,1.476832,82.52,49.375,6.625,41.625,0
106.5,-70.79,1.542136,82.52,48.5,4.0,42.125,0
106.75,67.57,1.611282,82.52,49.875,4.375,41.375,0
107.0,-47.35,1.6471360000000002,83.18,71.875,10.125,47.5,0
107.25,-35.97,1.68555,83.18,21.625,36.25,12.25,0
107.5,66.29,1.7073189999999998,83.18,-4.5,47.0,28.875,0
107.75,-45.61,1.6983549999999998,83.18,2.25,53.375,32.25,0
108.0,-135.86,1.6689040000000002,83.83,1.375,55.0,31.125,0
108.25,-71.35,1.553661,83.83,-5.125,53.625,31.375,0
108.5,313.64,1.508844,83.83,-5.25,53.625,31.875,0
108.75,-86.27,1.562624,83.83,-4.0,46.25,26.25,0
109.0,-98.58,1.5792700000000002,84.52,32.625,44.5,8.625,0
109.25,137.38,1.557502,84.52,69.5,21.375,10.375,0
109.5,221.0,1.560063,84.52,44.0,-0.5,55.25,0
109.75,200.16,1.569026,84.52,43.625,1.75,47.75,0
110.0,-118.67,1.556222,85.17,43.875,1.25,48.0,0
110.25,-210.66,1.535734,85.17,43.75,1.375,47.625,0
110.5,-197.07,1.5267700000000002,85.17,44.0,0.75,47.625,0
110.75,321.09,1.539575,85.17,44.125,1.125,47.875,0
111.0,-43.99,1.52549,85.87,43.375,-0.375,47.25,0
111.25,-55.82,1.522929,85.87,43.25,0.75,49.25,0
111.5,-12.77,1.524209,85.87,65.375,14.75,33.625,0
111.75,5.2,1.496039,85.87,43.75,27.25,-5.625,0
112.0,-4.77,1.528051,86.83,40.125,50.375,7.75,0
112.25,-118.37,1.4986,86.83,34.0,47.875,17.0,0
112.5,33.05,1.464027,86.83,29.5,54.75,8.5,0
112.75,134.46,1.33982,86.83,29.375,55.25,3.25,0
113.0,119.36,1.338539,87.82,29.25,56.5,0.0,0
113.25,-654.25,1.338539,87.82,31.0,56.0,-2.0,0
113.5,-57.68,1.323174,87.82,30.25,55.625,-2.375,0
113.75,126.53,1.31421,87.82,31.125,55.875,-2.375,0
114.0,26.65,1.315491,88.47,30.25,56.125,-2.875,0
114.25,33.6,1.31293,88.47,32.625,55.0,-1.75,0
114.5,-1.4,1.310369,88.47,29.5,56.25,-1.875,0
114.75,-2.4,1.315491,88.47,30.75,54.875,-1.25,0
115.0,-5.92,1.324454,89.1,29.75,55.25,-3.375,0
115.25,-26.61,1.350064,89.1,31.625,54.875,-7.625,0
115.5,0.22,1.371832,89.1,32.125,55.5,-10.0,0
115.75,8.96,1.379515,89.1,30.125,55.625,-8.875,0
116.0,-5.67,1.383356,89.78,29.75,55.625,-8.375,0
116.25,17.49,1.3936,89.78,29.875,55.75,-8.0,0
116.5,-7.89,1.384637,89.78,29.75,56.0,-7.625,0
116.75,-13.73,1.356466,89.78,29.875,55.875,-7.0,0
117.0,-6.59,1.343661,90.38,31.125,55.5,-6.375,0
117.25,10.47,1.323174,90.38,29.5,56.0,-6.125,0
117.5,-4.51,1.319332,90.38,29.125,55.875,-4.625,0
117.75,1.32,1.306527,90.38,30.0,56.125,-4.75,0
118.0,-7.16,1.296283,90.98,29.75,56.25,-5.25,0
118.25,-6.74,1.288601,90.98,29.875,56.25,-5.5,0
118.5,-0.34,1.283479,90.98,30.0,56.0,-5.375,0
118.75,7.95,1.28604,90.98,30.0,55.875,-5.375,0
119.0,21.34,1.283479,91.57,30.125,55.875,-5.5,0
119.25,-3.32,1.279637,91.57,30.625,55.875,-5.375,0
119.5,-0.49,1.273235,91.57,30.625,55.5,-5.125,0
119.75,1.85,1.270674,91.57,31.0,55.125,-5.0,0
120.0,-6.88,1.269393,92.22,32.125,57.0,-4.375,0
120.25,7.8,1.2681129999999998,92.22,31.125,54.0,-1.875,0
120.5,-6.94,1.266832,92.22,31.0,55.0,-1.75,0
120.75,-1.02,1.26043,92.22,29.875,55.0,-2.5,0
121.0,-3.43,1.2527469999999998,92.88,33.375,55.125,-4.375,0
121.25,2.48,1.254028,92.88,32.875,54.5,-3.75,0
121.5,4.86,1.254028,92.88,33.25,54.625,-4.25,0
121.75,3.29,1.257869,92.88,32.875,54.5,-4.75,0
122.0,19.84,1.250186,93.53,33.0,54.875,-4.5,0
122.25,-10.62,1.250186,93.53,32.875,54.5,-4.75,0
122.5,6.59,1.243784,93.53,33.125,54.375,-4.125,0
122.75,-2.52,1.241223,93.53,32.75,54.375,-4.125,0
123.0,-3.66,1.239942,94.18,33.375,54.625,-3.75,0
123.25,1.66,1.243784,94.18,33.0,54.375,-3.5,0
123.5,-2.93,1.239942,94.18,32.875,54.5,-3.875,0
123.75,5.61,1.239942,94.18,33.0,54.625,-4.125,0
124.0,-3.44,1.236101,94.83,32.875,54.125,-4.0,0
124.25,3.91,1.230979,94.83,33.125,54.75,-4.125,0
124.5,-6.27,1.228418,94.83,32.5,54.625,-4.125,0
124.75,2.01,1.229698,94.83,32.75,54.625,-4.625,0
125.0,1.6,1.232259,95.57,33.125,55.125,-5.625,0
125.25,-6.45,1.232259,95.57,33.875,54.5,-5.0,0
125.5,5.45,1.232259,95.57,30.0,55.625,0.625,0
125.75,-7.95,1.227137,95.57,26.75,57.625,10.5,0
126.0,7.99,1.224576,96.53,23.875,55.75,16.75,0
126.25,-10.16,1.227137,96.53,28.125,54.5,16.5,0
126.5,-17.13,1.228418,96.53,25.125,54.5,18.5,0
126.75,-30.17,1.222016,96.53,26.25,54.375,18.625,0
127.0,-37.26,1.224576,97.33,25.75,54.5,18.625,0
127.25,29.54,1.219455,97.33,26.375,54.75,18.5,0
127.5,20.95,1.218174,97.33,27.125,54.625,18.25,0
127.75,21.59,1.218174,97.33,26.375,55.0,18.375,0
128.0,8.0,1.218174,98.22,27.25,55.0,17.125,0
128.25,8.16,1.219455,98.22,27.0,54.75,17.5,0
128.5,-12.62,1.220735,98.22,26.875,54.875,17.625,0
128.75,-1.21,1.219455,98.22,27.125,54.75,17.125,0
129.0,-8.4,1.213052,99.13,27.125,55.0,17.125,0
129.25,-14.39,1.2117719999999998,99.13,27.0,55.0,17.25,0
129.5,1.69,1.209211,99.13,26.875,54.875,17.5,0
129.75,-1.27,1.2117719999999998,99.13,27.0,54.625,17.625,0
130.0,4.64,1.210491,100.0,27.125,54.375,18.0,0
130.25,-10.17,1.205369,100.0,27.375,54.125,18.125,0
130.5,2.45,1.204089,100.0,27.375,54.125,17.875,0
130.75,-5.62,1.2015280000000002,100.0,27.625,54.875,17.625,0
131.0,-0.52,1.202808,100.88,27.5,54.875,17.375,0
131.25,7.05,1.20665,100.88,27.5,54.625,17.625,0
131.5,-2.13,1.205369,100.88,27.25,54.75,17.25,0
131.75,3.48,1.20665,100.88,27.375,54.375,17.25,0
132.0,-12.11,1.204089,101.7,27.625,54.875,16.75,0
132.25,-6.73,1.196406,101.7,27.25,54.625,16.875,0
132.5,-4.01,1.196406,101.7,27.625,54.875,16.375,0
132.75,5.56,1.2117719999999998,101.7,27.375,55.125,16.125,0
133.0,7.52,1.193845,102.5,27.5,55.0,16.375,0
133.25,-14.99,1.193845,102.5,27.875,55.0,16.0,0
133.5,5.28,1.192564,102.5,27.5,54.75,16.0,0
133.75,-12.43,1.188723,102.5,27.875,55.0,15.625,0
134.0,6.75,1.188723,103.3,28.0,54.875,15.625,0
134.25,-8.78,1.1861620000000002,103.3,27.75,54.875,15.875,0
134.5,2.43,1.188723,103.3,27.625,54.75,15.875,0
134.75,1.68,1.192564,103.3,27.625,55.125,16.25,0
135.0,2.25,1.196406,104.05,27.5,54.625,16.25,0
135.25,2.94,1.193845,104.05,27.75,54.875,16.5,0
135.5,0.23,1.2015280000000002,104.05,28.0,55.0,15.875,0
135.75,6.49,1.223296,104.05,27.75,55.0,15.875,0
136.0,3.69,1.247625,104.85,27.875,54.875,15.875,0
136.25,9.79,1.280918,104.85,27.875,55.0,16.0,0
136.5,-6.42,1.292442,104.85,29.125,53.5,17.0,0
136.75,3.12,1.3052469999999998,104.85,31.5,49.875,16.375,0
137.0,-1.47,1.337259,105.6,28.125,59.375,8.0,1
137.25,-3.67,1.423051,105.6,36.5,65.625,9.375,1
137.5,-5.23,1.408966,105.6,3.25,50.375,21.5,1
137.75,-37.96,1.391039,105.6,-6.0,44.875,36.625,1
138.0,40.06,1.325735,106.23,6.5,40.25,36.0,1
138.25,154.28,1.265552,106.23,48.625,15.125,49.125,1
138.5,29.73,1.356466,106.23,30.125,-3.125,58.25,1
138.75,-254.03,1.391039,106.23,24.875,4.375,59.125,1
139.0,25.41,1.411527,106.93,24.75,6.875,60.0,1
139.25,134.8,1.41921,106.93,22.375,5.375,60.25,1
139.5,-195.39,1.421771,106.93,22.75,5.25,59.625,1
139.75,42.06,1.421771,106.93,22.625,5.25,60.125,1
140.0,56.7,1.41921,107.83,22.625,5.25,60.125,1
140.25,-6.74,1.423051,107.83,22.25,5.125,60.125,1
140.5,-15.12,1.417929,107.83,22.75,5.0,60.0,1
140.75,1.56,1.417929,107.83,22.5,5.125,60.0,1
141.0,-1.37,1.416649,108.73,22.125,5.25,60.0,1
141.25,3.0,1.423051,108.73,22.375,4.75,60.75,1
141.5,1.05,1.41921,108.73,21.5,4.375,60.5,1
141.75,-3.33,1.417929,108.73,21.125,4.0,60.75,1
142.0,6.21,1.417929,109.65,21.75,4.125,60.5,1
142.25,-1.99,1.415368,109.65,21.0,4.25,61.5,1
142.5,-30.45,1.415368,109.65,20.5,4.25,60.125,1
142.75,33.04,1.412807,109.65,21.5,5.0,60.5,1
143.0,16.01,1.42049,110.62,24.125,6.375,58.125,1
143.25,-3.63,1.426893,110.62,18.5,3.5,62.875,1
143.5,12.7,1.428173,110.62,23.125,5.75,58.625,1
143.75,67.9,1.426893,110.62,20.875,4.625,61.25,1
144.0,-116.81,1.428173,111.33,20.0,4.625,61.125,1
144.25,27.11,1.428173,111.33,20.875,5.125,60.625,1
144.5,25.96,1.426893,111.33,24.75,2.75,64.75,1
144.75,8.54,1.429454,111.33,44.375,23.5,36.0,1
145.0,13.99,1.398722,112.0,5.125,52.375,24.25,1
145.25,-23.06,1.36543,112.0,9.0,55.75,28.5,1
145.5,6.88,1.346222,112.0,-4.0,53.875,27.0,1
145.75,-56.03,1.346222,112.0,-13.5,51.0,33.625,1
146.0,182.41,1.346222,112.62,-8.125,48.0,27.0,1
146.25,-126.42,1.352625,112.62,41.625,38.75,28.25,1
146.5,-145.22,1.338539,112.62,43.875,12.875,53.75,1
146.75,-1.85,1.369271,112.62,30.125,8.875,56.75,1
147.0,192.82,1.385917,113.23,23.375,7.25,59.375,1
147.25,39.65,1.387198,113.23,25.875,7.25,58.375,1
147.5,-202.88,1.3936,113.23,26.75,6.875,58.25,1
147.75,-46.7,1.3936,113.23,26.875,6.75,58.125,1
148.0,49.3,1.42049,113.83,26.625,6.75,58.0,1
148.25,-34.64,1.424332,113.83,26.875,6.75,58.5,1
148.5,-25.24,1.421771,113.83,26.375,6.5,58.5,1
148.75,45.26,1.424332,113.83,26.75,6.375,58.0,1
149.0,24.24,1.424332,114.38,26.375,6.5,58.25,1
149.25,15.57,1.428173,114.38,34.0,6.125,54.5,1
149.5,18.29,1.429454,114.38,30.375,5.75,58.125,1
149.75,-8.95,1.433295,114.38,26.375,6.625,57.625,1
150.0,38.09,1.423051,114.92,24.625,8.0,59.25,1
150.25,41.87,1.425612,114.92,26.875,5.625,59.125,1
150.5,-78.04,1.432015,114.92,23.125,4.875,59.625,1
150.75,-23.53,1.433295,114.92,24.625,5.625,59.25,1
151.0,221.52,1.432015,115.48,25.5,5.875,60.125,1
151.25,33.35,1.430734,115.48,22.25,5.5,57.75,1
151.5,34.24,1.423051,115.48,21.25,5.75,59.875,1
151.75,-106.53,1.417929,115.48,25.0,5.375,60.0,1
152.0,24.82,1.428173,116.13,25.75,5.625,59.125,1
152.25,73.78,1.432015,116.13,22.875,6.875,59.375,1
152.5,-2.1,1.426893,116.13,18.75,4.125,61.375,1
152.75,36.65,1.428173,116.13,14.0,5.375,61.625,1
153.0,-88.86,1.428173,116.8,22.375,6.25,60.25,1
153.25,37.17,1.426893,116.8,29.5,5.0,57.75,1
153.5,32.65,1.435856,116.8,27.875,4.875,58.0,1
153.75,-33.8,1.417929,116.8,22.25,3.625,61.25,1
154.0,-45.42,1.408966,117.45,12.75,4.75,61.875,1
154.25,-76.59,1.408966,117.45,19.625,6.75,60.25,1
154.5,79.35,1.388478,117.45,16.75,6.875,61.625,1
154.75,149.35,1.384637,117.45,18.25,8.625,60.875,1
155.0,90.48,1.39232,118.1,17.625,8.375,61.125,1
155.25,-143.91,1.42049,118.1,17.75,7.75,61.5,1
155.5,-30.41,1.457624,118.1,18.25,8.5,61.5,1
155.75,13.03,1.496039,118.1,20.75,12.0,59.25,1
156.0,-7.93,1.521649,118.7,26.5,11.75,56.375,0
156.25,-4.75,1.544697,118.7,34.375,15.5,51.125,0
156.5,-10.39,1.565185,118.7,44.125,16.0,46.25,0
156.75,-14.14,1.583112,118.7,41.0,13.875,47.25,0
157.0,-10.48,1.5946360000000002,119.12,40.75,14.5,48.0,0
157.25,-14.17,1.599758,119.12,39.5,16.375,48.0,0
157.5,-5.0,1.602319,119.12,35.625,17.625,49.875,0
157.75,37.39,1.644575,119.12,31.5,16.375,53.875,0
158.0,10.53,1.757257,119.45,29.25,15.625,54.625,0
158.25,-16.37,1.860976,119.45,28.5,15.375,55.125,0
158.5,-27.18,1.925001,119.45,29.0,14.625,55.875,0
158.75,4.4,1.981342,119.45,28.75,14.625,55.5,0
159.0,-20.96,2.003309,119.73,29.0,14.75,55.125,0
159.25,39.88,2.010992,119.73,28.75,14.625,55.25,0
159.5,10.52,2.018675,119.73,29.125,14.625,55.625,0
159.75,15.4,2.017395,119.73,28.875,14.625,55.375,0
160.0,-3.52,2.0020290000000003,120.05,28.875,14.75,55.25,0
160.25,-4.68,1.970017,120.05,29.125,14.75,55.625,0
160.5,-4.16,1.940566,120.05,28.5,14.625,55.375,0
160.75,-2.08,1.911115,120.05,28.375,14.75,55.5,0
161.0,-1.83,1.863737,120.37,28.5,15.0,55.5,0
161.25,-0.95,1.827883,120.37,28.75,15.0,55.5,0
161.5,-2.17,1.84581,120.37,28.25,14.625,55.625,0
161.75,-2.24,1.890627,120.37,64.0,17.25,43.875,0
162.0,1.75,1.936724,120.67,5.5,46.875,25.5,0
162.25,-6.58,1.963614,120.67,3.75,53.5,25.375,0
162.5,0.03,1.962334,120.67,8.5,50.125,20.625,0
162.75,16.96,2.018675,120.67,29.375,51.25,1.625,0
163.0,-23.97,2.027638,120.98,52.0,40.125,-19.625,0
163.25,-152.62,2.013553,120.98,76.625,11.125,-20.125,0
163.5,-7.44,1.809956,120.98,55.625,3.0,-30.25,0
163.75,32.1,1.631969,120.98,56.25,7.75,-33.125,0
164.0,82.39,1.6460549999999998,121.27,56.125,7.75,-31.75,1
164.25,57.95,1.620445,121.27,56.75,7.5,-31.25,1
164.5,-108.07,1.639652,121.27,62.125,7.125,-32.125,1
164.75,118.22,1.655018,121.27,62.0,23.5,-19.5,1
165.0,-147.55,1.5973959999999998,121.52,62.125,19.875,5.375,1
165.25,-6.0,1.642213,121.52,47.125,35.75,14.5,1
165.5,33.36,1.638372,121.52,47.125,35.375,17.25,1
165.75,35.79,1.79203,121.52,52.75,12.875,29.0,1
166.0,-12.17,1.761298,121.75,49.5,4.625,46.25,1
166.25,82.55,1.7869080000000002,121.75,38.625,-0.5,50.125,1
166.5,135.99,1.817639,121.75,33.5,-1.75,59.5,1
166.75,-71.24,1.807395,121.75,16.625,-2.875,62.25,1
167.0,34.86,1.870139,122.03,30.375,9.5,51.375,1
167.25,126.37,1.850932,122.03,63.625,14.0,17.5,1
167.5,-50.4,1.8202,122.03,42.0,23.75,43.875,1
167.75,126.18,1.889346,122.03,48.375,12.625,38.75,1
168.0,-101.29,1.866298,122.3,55.625,5.375,38.5,1
168.25,-134.63,1.6345299999999998,122.3,53.75,12.375,35.75,1
168.5,-80.35,1.286239,122.3,52.375,20.625,36.5,1
168.75,85.49,0.798176,122.3,45.75,5.25,35.75,1
169.0,128.62,0.32557800000000003,122.45,61.5,2.125,28.625,1
169.25,55.27,0.120632,122.45,58.875,7.875,28.375,1
169.5,6.18,0.280692,122.45,58.375,9.125,26.375,1
169.75,-22.68,1.191116,122.45,57.125,13.875,26.875,1
170.0,-69.52,1.356367,122.67,60.0,13.25,23.125,1
170.25,23.89,1.387099,122.67,56.625,18.125,22.0,1
170.5,71.15,1.330757,122.67,55.5,25.5,28.25,1
170.75,-21.82,1.163014,122.67,48.5,36.5,15.625,1
171.0,-23.94,1.3550870000000002,122.87,60.25,34.125,-10.875,1
171.25,37.87,1.62911,122.87,53.875,28.75,4.875,1
171.5,32.8,1.648416,122.87,50.625,35.625,24.875,1
171.75,57.32,1.306527,122.87,44.0,29.0,29.5,1
172.0,98.74,1.329576,123.03,56.75,26.625,16.0,1
172.25,102.11,0.955675,123.03,48.125,14.375,41.75,1
172.5,-257.33,1.480574,123.03,21.125,6.75,57.0,1
172.75,-149.22,1.624087,123.03,5.375,-4.625,67.25,1
173.0,6.54,1.65738,123.2,8.875,1.75,62.375,1
173.25,439.77,1.65738,123.2,3.875,6.375,65.5,1
173.5,-178.33,1.6612209999999998,123.2,18.5,6.75,60.125,1
173.75,-81.98,1.6548189999999998,123.2,33.875,6.0,55.125,1
174.0,37.22,1.6496970000000002,123.4,32.5,23.75,52.5,1
174.25,30.42,1.494758,123.4,22.25,27.375,49.375,1
174.5,-10.3,1.480673,123.4,22.875,25.25,54.125,1
174.75,-74.78,1.484514,123.4,24.875,22.875,54.25,1
175.0,109.08,1.492197,123.58,24.25,22.5,53.875,1
175.25,-23.15,1.494758,123.58,27.5,23.75,55.875,1
175.5,8.83,1.493478,123.58,33.375,34.375,46.0,1
175.75,10.73,1.502441,123.58,25.875,28.375,41.375,1
176.0,-3.89,1.513966,123.75,37.25,-1.0,54.625,1
176.25,-0.5,1.567746,123.75,44.75,8.0,46.375,1
176.5,17.51,1.537014,123.75,32.625,2.25,47.125,1
176.75,99.94,1.585673,123.75,60.625,5.75,25.125,1
177.0,-90.61,1.601038,123.97,70.375,3.25,-10.5,1
177.25,-68.11,1.528051,123.97,64.75,8.25,-13.5,1
177.5,95.36,1.346222,123.97,63.25,21.375,-16.75,1
177.75,40.86,1.328296,123.97,41.375,33.0,-7.125,1
178.0,-46.08,1.6919529999999998,124.2,51.125,32.625,-9.0,1
178.25,-62.76,1.7175619999999998,124.2,59.875,28.875,-9.875,1
178.5,120.63,1.700916,124.2,70.375,6.125,-6.375,1
178.75,-122.36,1.585673,124.2,67.25,0.25,8.125,1
179.0,-197.39,0.958236,124.37,61.5,1.625,18.0,1
179.25,11.16,0.429298,124.37,61.25,0.125,30.25,1
179.5,91.42,1.191116,124.37,50.0,-1.375,40.0,1
179.75,109.57,1.370453,124.37,41.625,-2.375,46.75,1
180.0,-29.49,1.579171,124.45,46.375,-3.875,50.875,1
180.25,-12.63,1.571587,124.45,39.125,10.5,46.125,1
180.5,75.51,1.679148,124.45,28.125,41.375,17.875,1
180.75,-93.06,1.6893919999999998,124.45,42.125,42.0,14.125,1
181.0,-53.3,1.762379,124.48,63.0,33.625,-5.0,1
181.25,186.9,1.79183,124.48,60.375,26.25,-13.0,1
181.5,-52.74,1.7828669999999998,124.48,59.75,24.875,-10.875,1
181.75,-70.21,1.7828669999999998,124.48,60.75,34.875,0.0,1
182.0,-54.64,1.7815869999999998,124.53,48.625,38.5,8.375,1
182.25,89.21,1.7495740000000002,124.53,39.25,41.75,19.625,1
182.5,-57.26,1.6868310000000002,124.53,37.75,22.75,41.375,1
182.75,-86.07,1.775184,124.53,25.375,-0.25,61.375,1
183.0,-5.17,1.7867080000000002,124.53,22.625,5.375,61.25,1
183.25,-22.73,1.7815869999999998,124.53,19.0,4.375,61.625,1
183.5,46.65,1.7892689999999998,124.53,19.0,5.375,60.875,1
183.75,-68.91,1.79055,124.53,18.375,4.625,61.0,1
184.0,62.91,1.79055,124.48,17.625,3.75,61.5,1
184.25,-10.35,1.7854279999999998,124.48,22.5,4.0,60.75,1
184.5,-29.04,1.7828669999999998,124.48,21.375,3.0,64.5,1
184.75,7.98,1.7828669999999998,124.48,37.5,13.5,55.0,1
185.0,12.48,1.7815869999999998,124.42,28.0,30.75,30.375,1
185.25,-29.88,1.7649400000000002,124.42,37.5,53.875,17.375,1
185.5,10.7,1.7124400000000002,124.42,41.25,50.25,10.75,1
185.75,-28.07,1.7085990000000002,124.42,36.375,51.875,10.625,1
186.0,20.69,1.7175619999999998,124.17,40.0,49.875,6.125,1
186.25,115.02,1.73805,124.17,43.5,48.0,4.0,1
186.5,-37.13,1.722684,124.17,44.625,44.25,13.875,1
186.75,-49.78,1.7278060000000002,124.17,42.375,45.0,-13.625,1
187.0,-34.35,1.7021970000000002,123.93,34.5,53.5,-5.75,1
187.25,-23.85,1.6957939999999998,123.93,39.25,51.5,-8.875,1
187.5,127.65,1.7111599999999998,123.93,38.25,50.75,-11.375,1
187.75,-80.27,1.7290869999999998,123.93,39.5,48.875,-11.375,1
188.0,8.92,1.7393310000000002,123.63,38.875,50.375,-11.375,1
188.25,73.99,1.7393310000000002,123.63,38.75,52.0,-11.0,1
188.5,-29.36,1.7431720000000002,123.63,31.875,46.25,-5.125,1
188.75,-17.56,1.753416,123.63,57.875,39.875,-19.125,1
189.0,-9.91,1.7265259999999998,123.33,49.5,38.75,-2.875,1
189.25,-22.03,1.7303669999999998,123.33,42.375,41.75,22.25,1
189.5,-26.71,1.7828669999999998,123.33,70.0,-1.75,16.875,1
189.75,63.84,1.8007939999999998,123.33,61.25,4.125,28.375,1
190.0,-62.22,1.7854279999999998,122.98,49.625,24.5,19.25,1
190.25,-248.25,1.7636599999999998,122.98,66.5,21.5,16.5,1
190.5,-60.15,1.7649400000000002,122.98,60.25,6.625,22.375,1
190.75,324.75,1.7431720000000002,122.98,52.875,13.0,39.0,1
191.0,8.2,1.7354889999999998,122.67,55.25,0.75,36.375,1
191.25,-151.4,1.7354889999999998,122.67,55.25,-3.0,35.875,1
191.5,-49.9,1.725245,122.67,54.5,-3.25,35.875,1
191.75,57.94,1.718843,122.67,55.0,0.125,34.875,1
192.0,-48.92,1.694514,122.42,54.5,2.25,36.75,0
192.25,-20.4,1.6893919999999998,122.42,33.125,1.125,54.625,0
192.5,-40.5,1.681709,122.42,29.625,1.75,57.625,0
192.75,-40.58,1.7073189999999998,122.42,27.75,5.375,57.625,0
193.0,6.8,1.7085990000000002,122.2,27.75,4.625,58.0,0
193.25,24.02,1.7098799999999998,122.2,28.125,4.5,57.75,0
193.5,56.3,1.7124400000000002,122.2,28.0,5.25,57.75,0
193.75,-86.06,1.7175619999999998,122.2,27.375,5.25,57.875,0
194.0,28.01,1.7201229999999998,122.08,28.125,5.5,57.625,0
194.25,19.0,1.7201229999999998,122.08,28.25,5.25,58.0,0
194.5,5.77,1.7214040000000002,122.08,28.25,5.5,57.875,0
194.75,9.5,1.7175619999999998,122.08,27.875,5.5,57.875,0
195.0,5.43,1.7150009999999998,121.92,27.875,5.0,58.125,0
195.25,9.41,1.7137209999999998,121.92,27.75,5.25,58.0,0
195.5,-3.91,1.718843,121.92,27.625,5.25,58.0,0
195.75,11.73,1.7201229999999998,121.92,27.625,5.0,58.0,0
196.0,0.14,1.718843,121.73,27.5,5.0,57.875,0
196.25,8.42,1.7150009999999998,121.73,27.625,5.125,58.0,0
196.5,-4.4,1.7124400000000002,121.73,24.625,11.875,58.5,0
196.75,5.98,1.7085990000000002,121.73,26.375,-1.625,60.0,0
197.0,0.81,1.7060380000000002,121.78,19.625,-1.0,61.375,0
197.25,9.43,1.7060380000000002,121.78,16.25,3.25,62.125,0
197.5,27.62,1.703477,121.78,16.625,3.25,60.875,0
197.75,112.36,1.6919529999999998,121.78,13.25,1.625,63.0,0
198.0,-129.33,1.7098799999999998,121.88,12.5,2.875,62.875,0
198.25,-112.48,1.688111,121.88,14.25,4.625,62.625,0
198.5,42.23,1.688111,121.88,14.0,4.125,62.625,0
198.75,60.16,1.697075,121.88,13.5,3.625,62.75,0
199.0,-68.45,1.7060380000000002,121.9,14.375,3.625,62.625,0
199.25,-18.2,1.7085990000000002,121.9,13.875,3.25,62.625,0
199.5,27.73,1.7124400000000002,121.9,13.0,3.25,62.5,0
199.75,-8.25,1.7085990000000002,121.9,17.5,2.625,62.125,0
200.0,-15.69,1.716282,121.67,18.25,1.875,62.0,0
200.25,10.91,1.734209,121.67,21.5,2.5,60.875,0
200.5,-2.38,1.7393310000000002,121.67,22.0,1.625,61.0,0
200.75,1.92,1.73677,121.67,21.75,1.875,60.625,0
201.0,2.18,1.7354889999999998,121.45,21.75,1.75,60.5,0
201.25,0.22,1.7265259999999998,121.45,22.125,1.875,60.75,0
201.5,-2.64,1.7201229999999998,121.45,22.625,1.875,60.75,0
201.75,21.34,1.7137209999999998,121.45,22.25,1.625,60.25,0
202.0,17.98,1.7073189999999998,121.25,22.375,1.75,60.75,0
202.25,3.81,1.703477,121.25,22.0,1.75,60.625,0
202.5,15.05,1.6983549999999998,121.25,22.5,1.875,60.375,0
202.75,-17.23,1.6932330000000002,121.25,22.125,1.625,60.5,0
203.0,-1.15,1.6868310000000002,121.02,22.25,1.5,60.375,0
203.25,3.06,1.679148,121.02,22.125,1.75,60.5,0
203.5,-4.18,1.6740259999999998,121.02,22.375,1.875,60.5,0
203.75,3.89,1.6676240000000002,121.02,22.0,1.75,60.875,0
204.0,-5.8,1.663782,120.78,22.375,1.625,60.5,0
204.25,-0.41,1.65738,120.78,22.5,1.875,60.625,0
204.5,-2.6,1.6522580000000002,120.78,22.625,1.5,60.25,0
204.75,-1.9,1.6471360000000002,120.78,22.75,1.625,60.125,0
205.0,-4.43,1.6394529999999998,120.57,23.0,2.25,60.25,0
205.25,-1.1,1.63049,120.57,22.0,1.5,60.25,0
205.5,-2.14,1.6317700000000002,120.57,22.125,1.75,60.25,0
205.75,-5.99,1.622807,120.57,22.125,1.625,60.75,0
206.0,-22.65,1.620246,120.4,22.875,1.25,60.5,0
206.25,4.71,1.615124,120.4,23.125,2.375,59.625,0
206.5,-2.98,1.610002,120.4,20.0,2.75,60.625,0
206.75,3.72,1.595917,120.4,22.25,1.75,60.875,0
207.0,-2.8,1.592075,120.28,22.25,1.625,60.375,0
207.25,-11.7,1.593356,120.28,22.25,1.75,60.375,0
207.5,-39.52,1.586953,120.28,22.625,1.75,60.375,0
207.75,11.03,1.5792700000000002,120.28,22.75,1.875,60.375,0
208.0,22.84,1.572868,120.13,22.875,2.0,60.125,0
208.25,-7.01,1.561343,120.13,22.875,2.125,60.375,0
208.5,-12.27,1.560063,120.13,22.875,2.25,60.375,0
208.75,8.15,1.556222,120.13,22.75,2.0,60.125,0
209.0,-2.7,1.549819,120.02,22.875,2.375,60.25,0
209.25,8.3,1.544697,120.02,22.125,3.125,60.75,0
209.5,-1.64,1.539575,120.02,20.75,2.875,60.25,0
209.75,6.05,1.544697,120.02,20.5,0.75,61.125,0
210.0,-0.96,1.524209,119.9,29.25,3.625,58.0,0
210.25,3.75,1.521649,119.9,29.625,4.0,57.0,0
210.5,10.96,1.522929,119.9,30.0,3.5,57.25,0
210.75,1.1,1.517807,119.9,28.875,3.75,57.25,0
211.0,-28.73,1.511405,119.75,29.125,3.625,57.625,0
211.25,28.44,1.508844,119.75,29.0,3.875,57.5,0
211.5,2.04,1.496039,119.75,28.75,4.0,57.25,0
211.75,-17.59,1.492197,119.75,28.5,4.125,57.625,0
212.0,-12.3,1.489636,119.6,28.75,4.0,57.75,0
212.25,-6.89,1.485795,119.6,28.625,4.125,57.75,0
212.5,-2.37,1.492197,119.6,28.5,4.25,57.875,0
212.75,-3.35,1.479393,119.6,28.75,4.25,57.875,0
213.0,-1.29,1.470429,119.4,28.75,4.125,57.375,0
213.25,-4.85,1.461466,119.4,33.0,3.25,57.0,0
213.5,-1.87,1.455063,119.4,55.5,12.125,30.875,0
213.75,-8.36,1.42049,119.4,47.875,35.375,30.5,0
214.0,-0.02,1.39232,119.22,38.75,38.5,29.0,1
214.25,1.08,1.367991,119.22,44.5,47.125,-12.25,1
214.5,6.79,1.364149,119.22,37.5,47.5,-24.25,1
214.75,95.3,1.389759,119.22,39.25,48.25,-19.875,1
215.0,14.39,1.360308,119.0,42.0,48.5,1.75,1
215.25,59.77,1.3206129999999998,119.0,45.0,49.375,2.25,1
215.5,101.55,1.325735,119.0,17.25,48.5,21.375,1
215.75,-32.16,1.353905,119.0,-15.0,51.25,31.125,1
216.0,33.29,1.347503,118.87,-2.25,54.5,31.125,1
216.25,-104.28,1.359027,118.87,8.625,54.625,26.25,1
216.5,130.35,1.355186,118.87,19.25,58.375,28.375,1
216.75,-48.31,1.321893,118.87,-0.75,55.0,30.875,1
217.0,-24.99,1.296283,118.68,-1.625,50.375,38.875,1
217.25,74.33,1.292442,118.68,-52.25,34.375,34.625,1
217.5,97.43,1.289881,118.68,-56.75,8.875,9.75,1
217.75,-32.38,1.364149,118.68,-49.875,31.125,19.75,1
218.0,-184.32,1.36671,118.8,-41.25,36.625,-12.75,1
218.25,107.93,1.306527,118.8,-25.875,56.25,23.25,1
218.5,7.52,1.251467,118.8,26.125,61.0,48.0,1
218.75,233.12,1.284759,118.8,4.5,32.25,38.125,1
219.0,-122.5,1.319332,118.73,8.75,39.875,52.875,1
219.25,36.22,1.300125,118.73,3.875,34.875,54.125,1
219.5,132.39,1.335979,118.73,-33.25,12.75,34.75,1
219.75,159.52,1.343661,118.73,-68.875,-11.25,3.0,1
220.0,-317.79,1.343661,118.68,-62.625,-30.375,11.75,1
220.25,-32.35,1.353905,118.68,-45.375,-40.5,28.625,1
220.5,163.34,1.343661,118.68,-30.25,-34.875,48.375,1
220.75,78.91,1.352625,118.68,-58.25,-14.0,16.5,1
221.0,-171.16,1.370552,118.6,-59.875,-19.875,19.0,1
221.25,-181.28,1.332137,118.6,-57.625,-28.125,26.75,1
221.5,69.93,1.321893,118.6,-46.875,-40.0,43.625,1
221.75,247.93,1.28604,118.6,-46.125,7.0,22.125,1
222.0,-152.22,1.330857,118.28,-64.875,-9.875,8.625,1
222.25,-91.47,1.329576,118.28,-27.5,4.875,-11.25,1
222.5,60.66,1.330857,118.28,90.875,23.75,18.5,1
222.75,172.71,1.277076,118.28,76.375,-2.5,1.875,1
223.0,41.37,1.2489059999999998,118.0,65.125,1.5,-0.125,1
223.25,-129.3,1.361588,118.0,66.125,-0.5,-0.125,1
223.5,-4.03,1.383356,118.0,66.0,-0.375,0.625,1
223.75,69.74,1.402564,118.0,66.0,0.25,0.5,1
224.0,134.22,1.403844,117.77,66.0,-0.25,-0.25,1
224.25,-152.7,1.402564,117.77,66.0,0.375,-0.25,1
224.5,-50.62,1.408966,117.77,65.75,0.375,-0.5,1
224.75,-0.01,1.408966,117.77,65.75,-0.375,0.0,1
225.0,-8.65,1.405125,117.57,94.75,9.875,-1.5,1
225.25,8.04,1.324454,117.57,10.625,31.125,18.0,1
225.5,-2.98,1.343661,117.57,5.75,52.625,29.875,1
225.75,-1.69,1.311649,117.57,6.125,51.625,35.25,1
226.0,-47.13,1.31293,117.43,1.5,50.75,37.375,1
226.25,-106.71,1.31421,117.43,-12.875,48.5,37.375,1
226.5,66.51,1.31293,117.43,-27.5,47.625,31.25,1
226.75,96.74,1.327015,117.43,-21.625,43.625,31.75,1
227.0,-20.66,1.338539,117.33,0.875,32.375,29.375,1
227.25,-23.49,1.316771,117.33,50.5,16.0,60.25,1
227.5,43.45,1.318052,117.33,27.125,-2.25,63.5,1
227.75,102.21,1.376954,117.33,32.875,0.25,57.625,1
228.0,-91.64,1.402564,117.27,28.0,-12.125,52.375,1
228.25,-137.84,1.414088,117.27,31.25,3.125,57.875,1
228.5,116.28,1.410246,117.27,33.25,1.125,55.25,1
228.75,158.88,1.414088,117.27,34.375,0.625,54.75,1
229.0,-121.02,1.401283,117.35,33.75,1.0,55.125,1
229.25,79.85,1.401283,117.35,34.125,0.125,54.0,1
229.5,111.43,1.403844,117.35,37.125,5.5,53.25,1
229.75,-39.46,1.412807,117.35,42.25,-4.625,49.375,1
230.0,-27.25,1.417929,117.38,41.125,-2.0,53.0,1
230.25,-24.33,1.430734,117.38,40.0,0.375,50.125,1
230.5,-4.94,1.449942,117.38,41.5,-2.875,48.125,1
230.75,-48.51,1.479393,117.38,42.875,1.875,49.375,1
231.0,39.21,1.522929,117.4,41.75,1.625,49.125,1
231.25,-99.53,1.571587,117.4,41.0,1.25,50.125,1
231.5,-12.81,1.622807,117.4,38.0,1.375,52.125,1
231.75,91.96,1.6394529999999998,117.4,38.25,1.375,52.125,1
232.0,4.57,1.6522580000000002,117.43,38.375,1.0,52.25,1
232.25,-30.94,1.6612209999999998,117.43,38.625,1.125,52.125,1
232.5,18.1,1.6548189999999998,117.43,38.625,1.25,52.0,1
232.75,-10.51,1.636892,117.43,38.875,1.75,51.875,1
233.0,-44.04,1.63049,117.45,39.375,1.5,51.25,1
233.25,-11.12,1.611282,117.45,38.625,-0.25,51.875,1
233.5,8.18,1.6087209999999998,117.45,40.5,0.5,50.375,1
233.75,-5.44,1.602319,117.45,39.875,-0.375,50.75,1
234.0,-0.65,1.597197,117.55,41.0,1.25,50.25,0
234.25,-0.36,1.5907950000000002,117.55,40.0,-0.125,51.125,0
234.5,1.2,1.584392,117.55,46.125,-7.75,53.375,0
234.75,-1.31,1.57799,117.55,20.25,32.375,54.875,0
235.0,-1.79,1.60488,117.32,15.75,-15.375,56.625,0
235.25,-10.61,1.5754290000000002,117.32,-1.25,-2.875,62.75,0
235.5,-25.16,1.557502,117.32,-3.375,-1.875,64.25,0
235.75,-32.18,1.540856,117.32,-0.375,-2.5,65.25,0
236.0,107.33,1.530612,117.1,0.25,-1.375,64.0,0
236.25,-61.17,1.52549,117.1,1.875,-1.0,64.375,0
236.5,-8.51,1.510124,117.1,3.875,-2.25,64.375,0
236.75,-10.58,1.494758,117.1,5.25,-2.625,64.75,0
237.0,-3.29,1.494758,116.88,13.125,-0.875,62.375,0
237.25,-20.36,1.517807,116.88,16.0,0.375,62.25,0
237.5,33.02,1.502441,116.88,16.125,-0.375,62.375,0
237.75,111.49,1.501161,116.88,15.75,-0.5,62.5,0
238.0,-43.88,1.496039,116.67,15.625,-0.125,62.625,0
238.25,-34.58,1.487075,116.67,15.375,0.0,62.625,0
238.5,-12.24,1.480673,116.67,15.5,0.0,62.5,0
238.75,9.33,1.484514,116.67,16.375,-0.25,62.375,0
239.0,-0.9,1.497319,116.53,17.375,-1.0,62.375,0
239.25,1.94,1.515246,116.53,19.0,0.375,61.875,0
239.5,8.92,1.529331,116.53,18.25,5.625,60.125,0
239.75,2.72,1.539575,116.53,19.625,1.5,61.625,0
240.0,6.48,1.544697,116.43,18.25,2.125,61.5,0
240.25,-3.1,1.547258,116.43,17.625,2.75,61.75,0
240.5,-1.43,1.549819,116.43,17.375,2.5,61.75,0
240.75,29.62,1.548539,116.43,17.375,2.625,61.75,0
241.0,15.18,1.539575,116.32,18.625,3.5,61.75,0
241.25,-10.32,1.534453,116.32,17.625,2.125,61.75,0
241.5,8.16,1.528051,116.32,18.5,2.75,61.625,0
241.75,1.8,1.52549,116.32,18.625,2.875,61.5,0
242.0,-5.19,1.5267700000000002,116.13,18.875,2.25,61.5,0
242.25,-2.71,1.522929,116.13,18.625,2.625,61.375,0
242.5,-0.65,1.528051,116.13,18.625,2.375,61.5,0
242.75,-2.4,1.5267700000000002,116.13,18.5,2.5,61.625,0
243.0,21.1,1.529331,115.97,18.5,2.75,61.625,0
243.25,3.87,1.531892,115.97,18.0,2.625,61.75,0
243.5,8.26,1.537014,115.97,18.5,2.625,62.0,0
243.75,-1.7,1.533173,115.97,18.25,2.5,61.5,0
244.0,1.98,1.529331,115.88,18.125,2.875,61.375,0
244.25,-5.5,1.522929,115.88,18.375,2.875,61.875,0
244.5,-1.69,1.520368,115.88,18.125,2.875,61.625,0
244.75,-3.62,1.517807,115.88,18.125,2.875,61.625,0
245.0,-7.72,1.512685,115.8,18.375,2.875,61.75,0
245.25,-9.23,1.511405,115.8,18.375,2.625,61.5,0
245.5,-3.79,1.511405,115.8,18.625,2.875,61.75,0
245.75,-6.0,1.508844,115.8,18.25,2.625,61.25,0
246.0,2.05,1.505002,115.72,17.625,2.25,63.0,0
246.25,-2.44,1.503722,115.72,41.25,10.625,57.625,0
246.5,4.89,1.501161,115.72,7.375,48.5,23.875,0
246.75,-7.01,1.465307,115.72,10.0,51.25,32.5,0
247.0,-8.37,1.478112,115.48,8.0,51.0,36.125,0
247.25,-20.54,1.481954,115.48,4.375,49.5,35.875,0
247.5,58.52,1.507563,115.48,6.25,51.875,36.125,0
247.75,-149.19,1.55238,115.48,6.75,51.625,36.0,0
248.0,-11.13,1.588234,115.28,6.875,51.375,35.75,0
248.25,32.0,1.620246,115.28,6.625,51.875,36.375,0
248.5,-5.71,1.6394529999999998,115.28,2.0,50.25,35.875,0
248.75,2.48,1.666343,115.28,1.375,53.125,37.0,0
249.0,-6.14,1.6906720000000002,115.13,0.5,50.5,36.625,0
249.25,-7.12,1.68555,115.13,1.5,51.625,36.625,0
249.5,-6.16,1.670184,115.13,1.875,51.375,36.375,0
249.75,-6.1,1.6586599999999998,115.13,1.75,51.125,36.375,0
250.0,25.99,1.6394529999999998,115.03,2.25,51.625,36.625,0
250.25,-1.52,1.63049,115.03,1.875,51.375,36.375,0
250.5,-9.26,1.617685,115.03,1.875,51.625,36.25,0
250.75,-2.5,1.6087209999999998,115.03,2.5,51.5,36.5,0
251.0,-0.43,1.6087209999999998,114.9,2.75,51.0,36.75,0
251.25,1.77,1.603599,114.9,2.625,51.25,37.0,0
251.5,1.8,1.592075,114.9,2.375,51.125,37.125,0
251.75,13.28,1.583112,114.9,3.75,51.5,37.375,0
252.0,-7.01,1.576709,114.75,-1.25,50.625,38.375,0
252.25,-13.47,1.592075,114.75,-6.625,47.125,39.0,0
252.5,-21.14,1.567746,114.75,-4.0,53.875,33.0,0
252.75,-42.28,1.560063,114.75,38.625,48.25,27.75,0
253.0,-101.09,1.540856,114.55,21.5,39.0,46.25,0
253.25,80.91,1.497319,114.55,1.5,35.0,47.5,0
253.5,186.05,1.517807,114.55,-62.625,4.75,5.5,0
253.75,69.13,1.567746,114.55,4.75,71.0,40.0,0
254.0,-261.86,1.511405,114.23,-2.625,40.375,41.625,0
254.25,57.87,1.533173,114.23,-1.75,32.375,26.125,0
254.5,33.04,1.558783,114.23,73.375,22.0,10.625,0
254.75,92.55,1.560063,114.23,77.75,23.125,17.0,0
255.0,-29.81,1.593356,113.92,40.125,3.75,44.75,0
255.25,13.87,1.6586599999999998,113.92,21.0,-0.625,56.125,0
255.5,68.06,1.734209,113.92,32.5,11.25,57.125,0
255.75,-109.29,1.794391,113.92,29.0,6.625,55.875,0
256.0,-88.35,1.881464,113.62,33.25,8.375,54.625,0
256.25,214.66,1.925001,113.62,33.75,5.625,54.625,0
256.5,129.6,1.942927,113.62,37.75,0.0,52.5,0
256.75,-25.74,1.940366,113.62,40.375,-3.375,51.125,0
257.0,-78.17,1.933964,113.12,39.75,-5.25,50.75,0
257.25,30.51,1.927562,113.12,39.875,-4.375,50.875,0
257.5,-14.8,1.916037,113.12,39.75,-2.5,51.625,0
257.75,6.7,1.912196,113.12,40.125,1.5,51.625,0
258.0,-21.64,1.932684,112.6,46.625,15.5,28.5,0
258.25,7.86,1.946769,112.6,61.75,10.5,-24.25,0
258.5,34.11,1.89831,112.6,52.0,11.875,-32.75,0
258.75,-49.0,1.817639,112.6,53.125,16.625,-35.0,0
259.0,-21.3,1.698554,112.02,56.75,11.875,-27.875,0
259.25,31.32,1.655018,112.02,56.0,16.25,-30.75,0
259.5,-28.98,1.721603,112.02,57.625,10.0,-27.375,0
259.75,-122.91,1.848371,112.02,56.625,14.625,-29.75,0
260.0,112.46,1.932883,111.35,57.125,12.0,-29.125,0
260.25,107.16,2.0045900000000003,111.35,56.875,12.875,-29.25,0
260.5,-64.82,2.018675,111.35,57.0,12.875,-28.875,0
260.75,31.64,2.051968,111.35,57.625,12.875,-27.625,0
261.0,-31.99,2.1198330000000003,110.67,57.875,13.0,-27.125,0
261.25,6.92,2.214589,110.67,58.0,13.0,-26.875,0
261.5,-8.31,2.274772,110.67,57.875,12.625,-26.75,0
261.75,-16.63,2.268369,110.67,58.375,12.375,-26.375,0
262.0,-8.56,2.250443,109.98,58.75,12.0,-25.75,0
262.25,14.1,2.253003,109.98,58.375,12.375,-26.375,0
262.5,33.76,2.267089,109.98,57.875,11.75,-28.0,0
262.75,45.04,2.259406,109.98,59.0,10.0,-25.875,0
263.0,-49.8,2.249162,109.3,59.0,11.25,-26.625,0
263.25,-0.44,2.227394,109.3,58.25,12.0,-25.625,0
263.5,21.5,2.194101,109.3,58.75,10.625,-26.125,0
263.75,-45.63,2.160809,109.3,59.5,10.0,-26.5,0
264.0,-39.13,2.159528,108.5,57.875,14.5,-26.625,0
264.25,-6.5,2.130077,108.5,59.625,7.125,-24.25,0
264.5,3.45,2.133919,108.5,58.5,12.5,-26.625,0
264.75,-3.22,2.159528,108.5,58.875,13.0,-26.5,0
265.0,17.63,2.167211,107.77,60.75,7.375,-25.375,0
265.25,-2.1,2.210747,107.77,57.5,13.75,-25.875,0
265.5,14.11,2.2286740000000003,107.77,59.75,9.125,-25.375,0
265.75,-0.04,2.220991,107.77,58.75,11.5,-25.75,0
266.0,-9.27,2.226113,107.08,58.625,10.875,-24.75,0
266.25,20.39,2.199223,107.08,59.875,9.625,-25.75,0
266.5,5.07,2.196662,107.08,58.5,11.625,-25.375,0
266.75,-1.12,2.177455,107.08,59.375,10.375,-25.625,0
267.0,2.42,2.162089,106.38,59.125,10.125,-25.25,0
267.25,-8.11,2.151845,106.38,59.0,10.625,-25.875,0
267.5,16.74,2.144162,106.38,59.0,10.0,-26.0,0
267.75,-10.93,2.127516,106.38,59.0,9.375,-26.0,0
268.0,3.96,2.1172720000000003,105.72,59.125,8.625,-26.375,0
268.25,1.71,2.1172720000000003,105.72,59.875,8.125,-25.125,0
268.5,-2.74,2.089102,105.72,60.375,8.25,-24.625,0
268.75,0.46,2.099345,105.72,60.0,9.25,-24.75,0
269.0,6.47,2.114711,105.05,59.25,8.875,-24.75,0
269.25,-19.86,2.059651,105.05,60.875,5.625,-24.25,0
269.5,-13.4,2.100626,105.05,59.375,9.625,-27.125,0
269.75,18.42,2.109589,105.05,59.5,9.75,-24.875,0
270.0,14.02,2.0788580000000003,104.42,61.125,4.75,-23.0,0
270.25,13.03,2.068614,104.42,59.625,9.875,-24.5,0
270.5,-4.74,2.075016,104.42,60.375,8.25,-24.75,0
270.75,-13.79,2.0788580000000003,104.42,60.125,8.25,-23.75,0
271.0,-38.57,2.077577,103.75,60.25,8.75,-24.625,0
271.25,35.43,2.08398,103.75,60.875,9.125,-23.375,0
271.5,-24.52,2.108309,103.75,60.5,9.25,-23.25,0
271.75,-9.74,2.131358,103.75,60.25,9.625,-23.5,0
272.0,22.97,2.13776,103.08,60.625,9.5,-23.25,0
272.25,0.5,2.144162,103.08,60.625,9.75,-23.875,0
272.5,-10.13,2.142882,103.08,60.25,9.5,-23.875,0
272.75,-2.71,2.144162,103.08,61.375,9.75,-24.125,0
273.0,13.04,2.153126,102.48,73.75,19.0,-1.25,0
273.25,-26.15,2.327271,102.48,15.125,40.625,19.0,0
273.5,-1.18,2.366966,102.48,10.25,52.75,27.5,0
273.75,-0.31,2.460442,102.48,2.75,50.25,35.25,0
274.0,18.91,2.594039,101.87,0.75,52.0,37.125,0
274.25,-37.91,2.6977580000000003,101.87,-9.75,51.5,34.375,0
274.5,-40.27,2.574832,101.87,-20.75,48.0,34.5,0
274.75,-44.25,2.590198,101.87,-14.125,49.0,34.75,0
275.0,-47.96,2.748978,101.2,-13.25,28.625,18.375,0
275.25,-15.49,2.816843,101.2,90.125,28.0,-29.625,0
275.5,82.5,2.668307,101.2,57.375,9.75,-18.75,0
275.75,63.33,2.629893,101.2,59.625,18.875,-24.0,0
276.0,60.47,2.631173,100.47,59.25,13.25,-22.625,0
276.25,10.85,2.611966,100.47,58.5,16.25,-24.875,0
276.5,-90.16,2.540259,100.47,58.125,15.625,-24.5,0
276.75,-213.73,2.494162,100.47,57.875,15.75,-25.5,0
277.0,21.4,2.4736740000000004,99.77,58.375,15.0,-24.75,0
277.25,41.0,2.40965,99.77,58.375,14.875,-25.0,0
277.5,-21.33,2.334101,99.77,58.5,14.125,-25.375,0
277.75,-2.54,2.267516,99.77,58.875,13.125,-25.25,0
278.0,20.94,2.238065,98.82,58.875,13.625,-25.0,0
278.25,26.16,2.195809,98.82,58.875,13.125,-24.875,0
278.5,-34.0,2.156114,98.82,59.0,13.0,-25.0,0
278.75,-9.47,2.136907,98.82,58.5,14.375,-25.375,0
279.0,11.5,2.131785,98.05,58.875,13.625,-25.0,0
279.25,-11.67,2.142029,98.05,59.375,13.5,-23.125,0
279.5,-10.37,2.162517,98.05,59.625,14.875,-23.75,0
279.75,-5.97,2.17276,98.05,61.375,13.625,-19.875,0
280.0,-9.25,2.166358,97.33,60.75,13.5,-20.125,0
280.25,19.37,2.156114,97.33,61.0,13.75,-21.625,0
280.5,8.54,2.161236,97.33,60.375,13.125,-21.375,0
280.75,12.94,2.153553,97.33,60.75,13.0,-21.75,0
281.0,17.35,2.152273,96.67,60.375,13.125,-21.625,0
281.25,2.5,2.149712,96.67,59.625,12.875,-21.75,0
281.5,19.49,2.147151,96.67,58.25,14.125,-26.75,0
281.75,8.08,2.148431,96.67,58.25,12.375,-26.5,0
282.0,7.83,2.101053,96.32,58.0,13.375,-26.625,0
282.25,-1.22,2.106175,96.32,58.75,12.875,-26.375,0
282.5,6.9,2.106175,96.32,59.875,8.0,-23.75,0
282.75,-3.4,2.404528,96.32,60.0,9.5,-26.25,0
283.0,19.21,2.334101,95.95,59.0,10.25,-25.625,0
283.25,-15.34,2.320016,95.95,59.625,9.375,-24.75,0
283.5,-39.05,2.371235,95.95,60.25,9.375,-24.25,0
283.75,-89.86,2.375077,95.95,60.125,9.75,-24.25,0
284.0,47.55,2.377638,95.53,60.375,8.875,-23.875,0
284.25,-12.52,2.368674,95.53,60.25,9.0,-23.625,0
284.5,9.2,2.375077,95.53,59.375,9.5,-25.125,0
284.75,7.9,2.369955,95.53,57.0,11.625,-31.5,0
285.0,2.21,2.380199,95.1,56.375,11.125,-29.875,0
285.25,-4.91,2.380199,95.1,56.375,11.5,-30.25,0
285.5,-31.28,2.373796,95.1,56.75,11.625,-29.875,0
285.75,10.36,2.376357,95.1,56.625,11.375,-30.25,0
286.0,32.53,2.366113,94.65,56.0,11.25,-30.25,0
286.25,55.43,2.363552,94.65,57.0,11.625,-30.625,0
286.5,-20.24,2.35587,94.65,58.875,10.625,-24.875,0
286.75,-15.31,2.270077,94.65,60.375,9.375,-23.5,0
287.0,-8.04,2.279041,94.2,60.125,9.875,-23.5,0
287.25,-4.25,2.311053,94.2,60.125,10.625,-24.5,0
287.5,28.29,2.380199,94.2,60.5,8.5,-23.125,0
287.75,4.09,2.455747,94.2,60.125,10.625,-24.375,0
288.0,-40.5,2.553064,93.77,60.625,8.25,-23.75,0
288.25,6.67,2.636295,93.77,60.125,9.875,-23.875,0
288.5,-5.29,2.690076,93.77,60.25,9.375,-23.25,0
288.75,2.76,2.7220880000000003,93.77,61.0,8.5,-23.25,0
289.0,-1.87,2.7297700000000003,93.15,60.75,9.625,-22.125,0
289.25,-4.62,2.7220880000000003,93.15,61.0,10.25,-21.75,0
289.5,-24.66,2.713124,93.15,60.875,8.75,-21.5,0
289.75,12.39,2.715685,93.15,61.125,10.25,-22.125,0
290.0,-1.73,2.775868,92.52,61.25,10.125,-22.0,0
290.25,27.85,2.80916,92.52,61.25,9.5,-21.125,0
290.5,1.99,2.889831,92.52,61.125,9.75,-21.5,0
290.75,8.24,2.978184,92.52,61.25,9.625,-21.125,0
291.0,-15.61,3.021447,91.88,61.375,9.375,-21.25,0
291.25,6.07,3.061142,91.88,61.375,9.375,-21.625,0
291.5,2.66,3.064983,91.88,61.25,9.75,-21.5,0
291.75,-16.83,3.058581,91.88,61.75,9.25,-21.625,0
292.0,1.74,3.032971,91.25,61.125,9.0,-22.125,0
292.25,3.02,2.995837,91.25,61.0,9.0,-21.5,0
292.5,1.0,2.961264,91.25,61.5,9.25,-22.0,0
292.75,5.71,2.930533,91.25,61.0,9.375,-21.625,0
293.0,3.47,2.901082,90.62,60.875,9.5,-21.25,0
293.25,3.21,2.876752,90.62,61.125,9.5,-21.5,0
293.5,3.32,2.854984,90.62,61.25,9.625,-21.75,0
293.75,-5.73,2.835777,90.62,61.25,9.5,-21.75,0
294.0,-8.79,2.81785,89.9,61.0,9.0,-22.0,0
294.25,-6.64,2.810167,89.9,61.125,9.0,-22.0,0
294.5,-8.81,2.802484,89.9,60.5,8.75,-21.875,0
294.75,1.68,2.799923,89.9,60.125,11.125,-25.5,0
295.0,0.4,2.797362,89.5,59.875,9.5,-24.5,0
295.25,-0.69,2.8408990000000003,89.5,60.75,8.125,-23.0,0
295.5,5.71,2.865228,89.5,60.375,10.25,-24.625,0
295.75,-0.73,2.886996,89.5,61.125,9.125,-22.75,0
296.0,-36.39,2.9126060000000003,89.12,61.125,9.0,-22.625,0
296.25,32.13,2.934374,89.12,61.25,9.0,-22.875,0
296.5,6.7,2.9497400000000003,89.12,61.125,8.875,-21.625,0
296.75,-10.0,2.9458990000000003,89.12,61.125,8.875,-22.375,0
297.0,3.32,2.9458990000000003,88.7,61.0,8.875,-22.25,0
297.25,3.38,2.942057,88.7,61.0,9.25,-22.5,0
297.5,0.52,2.929252,88.7,61.0,8.875,-22.25,0
297.75,3.55,2.9126060000000003,88.7,60.875,9.125,-22.0,0
298.0,-4.15,2.901082,88.3,61.125,9.0,-22.0,0
298.25,12.94,2.89852,88.3,61.0,9.0,-22.0,0
298.5,-4.65,2.894679,88.3,61.0,9.0,-22.0,0
298.75,2.15,2.884435,88.3,61.0,9.125,-22.0,0
299.0,-6.05,2.883155,87.92,60.875,9.0,-22.0,0
299.25,-0.23,2.867789,87.92,59.5,10.25,-25.75,0
299.5,-6.73,2.8447400000000003,87.92,58.875,9.5,-26.625,0
299.75,-1.66,2.819131,87.92,59.125,10.0,-26.625,0
300.0,-2.83,2.819131,87.58,59.25,9.375,-25.625,0
300.25,-10.41,2.812728,87.58,59.125,10.125,-26.5,0
300.5,-23.23,2.81657,87.58,59.125,9.625,-26.25,0
300.75,42.04,2.808887,87.58,59.25,10.125,-26.25,0
301.0,6.17,2.799923,87.28,59.0,10.375,-25.875,0
301.25,-5.07,2.794801,87.28,59.25,9.875,-26.25,0
301.5,2.76,2.796082,87.28,60.5,9.125,-25.25,0
301.75,-4.25,2.79224,87.28,58.875,9.5,-24.25,0
302.0,11.72,2.785838,87.13,60.125,9.25,-23.625,0
302.25,6.48,2.802484,87.13,60.75,9.125,-23.375,0
302.5,-3.44,2.829375,87.13,60.375,9.375,-23.5,0
302.75,-6.99,2.87163,87.13,60.375,9.0,-23.25,0
303.0,37.08,2.915167,86.95,60.5,9.0,-23.375,0
303.25,-5.05,2.947179,86.95,60.375,9.0,-23.625,0
303.5,-7.82,2.970228,86.95,60.125,8.375,-23.25,0
303.75,-1.99,2.984313,86.95,59.625,11.375,-25.75,0
304.0,-6.59,2.983032,86.75,59.5,10.125,-25.125,0
304.25,-2.06,2.977911,86.75,56.0,10.5,-24.875,0
304.5,5.52,2.974069,86.75,88.375,24.875,-17.625,0
304.75,9.93,2.875472,86.75,24.25,42.875,13.125,0
305.0,-40.97,2.858826,86.58,-17.0,48.5,25.75,0
305.25,16.27,2.584802,86.58,3.25,46.875,25.625,0
305.5,22.22,2.44523,86.58,-3.75,41.5,29.0,0
305.75,61.42,2.376357,86.58,38.0,31.625,-8.625,0
306.0,-7.17,2.495442,86.4,88.125,28.125,-28.5,0
306.25,-81.07,2.398125,86.4,55.5,12.0,-25.25,0
306.5,56.61,2.530015,86.4,59.125,14.125,-24.5,0
306.75,56.01,2.6478200000000003,86.4,58.875,14.375,-24.5,0
307.0,58.55,2.7297700000000003,86.35,58.75,14.625,-24.5,0
307.25,-220.32,2.811721,86.35,59.0,14.875,-24.625,0
307.5,25.23,2.877026,86.35,58.75,15.25,-24.125,0
307.75,62.91,2.921843,86.35,58.625,14.0,-25.0,0
308.0,16.9,2.925684,86.23,59.0,15.25,-23.625,0
308.25,10.03,2.930806,86.23,58.125,14.75,-25.25,0
308.5,3.82,2.919282,86.23,58.375,15.25,-24.375,0
308.75,-0.88,2.8680630000000003,86.23,59.5,15.625,-24.75,0
309.0,30.45,2.78227,86.05,58.25,14.375,-25.125,0
309.25,-44.25,2.704161,86.05,59.25,12.0,-23.125,0
309.5,38.56,2.704161,86.05,58.625,16.25,-25.5,0
309.75,-12.62,2.678551,86.05,59.875,12.625,-22.625,0
310.0,-20.86,2.642698,85.87,60.375,12.25,-21.375,0
310.25,-29.32,2.6977580000000003,85.87,60.25,13.125,-22.25,0
310.5,72.96,2.7937950000000003,85.87,58.625,13.5,-27.25,0
310.75,-5.08,2.787392,85.87,58.75,11.5,-24.875,0
311.0,-31.98,2.7592220000000003,85.63,59.75,12.0,-23.875,0
311.25,8.77,2.7592220000000003,85.63,59.875,11.875,-23.875,0
311.5,-26.94,2.7592220000000003,85.63,59.75,11.375,-23.375,0
311.75,-75.2,2.7566610000000003,85.63,59.875,11.875,-23.875,0
312.0,87.24,2.7566610000000003,85.38,60.0,11.375,-24.0,0
312.25,2.69,2.746417,85.38,60.25,10.5,-23.25,0
312.5,-41.61,2.737453,85.38,61.0,9.875,-22.375,0
312.75,-1.98,2.72721,85.38,61.125,9.75,-22.0,0
313.0,-0.62,2.720807,85.17,63.25,9.625,-19.375,0
313.25,5.5,2.709283,85.17,84.375,16.75,-10.375,0
313.5,6.73,2.46471,85.17,8.625,38.125,17.375,0
313.75,-14.04,2.389162,85.17,10.375,53.5,24.625,0
314.0,-9.79,2.373796,85.03,15.5,56.0,26.25,0
314.25,-13.19,2.35587,85.03,5.75,54.75,28.125,0
314.5,-89.1,2.336662,85.03,-10.625,53.625,30.5,0
314.75,-11.85,2.377638,85.03,-16.125,53.25,29.25,0
315.0,41.14,2.302089,84.9,-8.375,49.875,33.25,0
315.25,-4.33,2.337943,84.9,-2.25,38.625,18.75,0
315.5,28.22,2.38276,84.9,70.375,34.5,-15.75,0
315.75,39.79,2.340504,84.9,67.875,10.5,-22.25,0
316.0,68.96,2.323857,84.77,61.375,11.0,-17.875,0
316.25,-13.89,2.113858,84.77,62.875,9.0,-17.25,0
316.5,6.73,2.0652,84.77,62.375,8.25,-14.5,0
316.75,-0.75,2.052395,84.77,62.375,14.5,-20.25,0
317.0,-131.66,2.09209,84.62,62.375,8.625,-18.0,0
317.25,-4.61,2.072883,84.62,62.625,7.625,-16.75,0
317.5,-3.36,2.129224,84.62,61.75,13.25,-19.375,0
317.75,50.14,2.19709,84.62,63.25,7.75,-17.75,0
318.0,47.32,2.268797,84.45,61.375,11.875,-17.75,0
318.25,-34.4,2.341784,84.45,62.25,8.5,-18.125,0
318.5,48.52,2.38404,84.45,62.625,12.875,-17.125,0
318.75,-41.49,2.5761130000000003,84.45,64.375,7.375,-11.375,0
319.0,-55.57,2.678551,84.38,64.0,10.25,-11.25,0
319.25,36.82,2.723368,84.38,64.25,9.25,-12.875,0
319.5,38.84,2.682393,84.38,63.5,9.5,-13.5,0
319.75,46.48,2.591478,84.38,63.375,9.375,-13.625,0
320.0,-55.0,2.5966,84.4,63.625,9.25,-14.0,0
320.25,-42.99,2.6234900000000003,84.4,63.5,9.25,-13.75,0
320.5,9.58,2.6491,84.4,63.875,8.875,-13.5,0
320.75,8.76,2.6234900000000003,84.4,64.0,8.25,-11.375,0
321.0,-23.77,2.734892,84.43,64.375,8.0,-9.75,0
321.25,-0.12,2.6913560000000003,84.43,64.75,8.375,-9.375,0
321.5,-23.31,2.558186,84.43,64.125,8.5,-10.125,0
321.75,41.45,2.46471,84.43,64.25,9.0,-11.5,0
322.0,-63.49,2.469832,84.45,66.75,10.125,-17.375,0
322.25,-13.63,2.56971,84.45,65.375,22.375,-11.875,0
322.5,-26.0,2.641417,84.45,43.0,36.5,-5.625,0
322.75,38.42,2.573552,84.45,44.125,39.25,-21.0,0
323.0,17.79,2.428857,84.27,41.375,39.875,-27.125,1
323.25,25.26,2.279041,84.27,40.125,41.5,-26.875,1
323.5,-31.23,2.208614,84.27,36.875,40.0,-32.75,1
323.75,25.11,2.125383,84.27,35.0,38.875,-37.75,1
324.0,-131.71,2.069041,84.17,33.125,38.375,-40.25,1
324.25,-94.43,2.035749,84.17,31.625,41.25,-41.0,1
324.5,-95.24,2.06648,84.17,22.375,44.625,-36.125,1
324.75,126.2,2.102334,84.17,19.5,49.25,-34.75,1
325.0,85.07,2.103614,83.95,18.625,50.5,-32.5,1
325.25,-354.72,2.103614,83.95,15.5,50.625,-35.25,1
325.5,-120.74,1.807823,83.95,19.0,50.125,-33.5,1
325.75,73.24,1.286239,83.95,19.625,52.5,-29.625,1
326.0,161.39,1.8007939999999998,83.63,19.625,54.0,-28.125,1
326.25,-11.9,1.9775,83.63,20.625,53.0,-28.0,1
326.5,-125.29,2.021236,83.63,22.375,50.75,-26.625,1
326.75,221.64,1.990505,83.63,32.0,40.5,-21.75,1
327.0,152.15,2.177455,83.28,45.25,33.25,-41.25,1
327.25,-335.04,2.279894,83.28,62.875,14.875,-33.25,1
327.5,-174.48,2.324711,83.28,61.125,14.5,-3.375,1
327.75,53.78,2.363125,83.28,49.5,9.0,34.625,1
328.0,150.89,2.575685,83.15,59.0,15.375,21.875,1
328.25,-280.69,2.546661,83.15,62.0,19.625,2.125,1
328.5,-124.34,2.321296,83.15,57.5,22.875,-16.125,1
328.75,125.82,2.326418,83.15,55.0,19.625,-31.375,1
329.0,168.92,2.404528,83.25,55.625,13.5,-35.75,1
329.25,123.16,2.414772,83.25,55.5,6.875,-32.25,1
329.5,-41.02,2.6196490000000003,83.25,57.875,8.625,-30.25,1
329.75,-58.37,2.281601,83.25,58.875,7.25,-26.5,1
330.0,-112.59,2.273919,83.35,58.375,8.125,-27.75,1
330.25,-89.7,2.465991,83.35,58.125,8.625,-28.625,1
330.5,-163.2,2.594039,83.35,57.5,9.125,-29.25,1
330.75,231.96,2.635015,83.35,56.75,10.0,-30.75,1
331.0,95.55,2.652941,83.47,57.0,9.875,-30.0,1
331.25,60.32,2.652941,83.47,57.75,9.625,-28.625,1
331.5,22.45,2.636295,83.47,57.375,10.0,-29.125,1
331.75,22.11,2.643978,83.47,56.75,9.75,-30.75,1
332.0,19.69,2.627332,83.6,56.375,9.0,-31.5,1
332.25,53.2,2.626051,83.6,58.25,8.5,-27.875,1
332.5,-60.75,2.5825150000000003,83.6,59.375,8.5,-26.125,1
332.75,-8.95,2.518491,83.6,59.5,9.0,-26.25,1
333.0,-0.66,2.521052,83.68,59.125,9.0,-26.0,1
333.25,27.23,2.5120880000000003,83.68,59.125,9.0,-26.375,1
333.5,2.61,2.5120880000000003,83.68,59.25,8.375,-25.875,1
333.75,-38.45,2.495442,83.68,59.5,7.875,-26.0,1
334.0,-21.59,2.5492220000000003,83.77,59.875,8.0,-24.875,1
334.25,8.41,2.499284,83.77,60.125,8.75,-25.25,1
334.5,-12.05,2.460869,83.77,60.25,8.125,-23.375,1
334.75,24.11,2.314894,83.77,60.25,9.125,-26.75,1
335.0,-6.85,2.30465,83.92,59.25,6.5,-21.125,1
335.25,-27.42,2.305931,83.92,59.625,12.625,-28.125,1
335.5,-15.58,2.312333,83.92,61.125,4.875,-22.375,1
335.75,4.3,2.302089,83.92,59.75,10.375,-25.125,1
336.0,-4.5,2.289284,84.07,60.25,7.625,-25.375,1
336.25,43.09,2.273919,84.07,59.75,7.5,-24.875,1
336.5,-31.61,2.290565,84.07,59.625,9.0,-25.875,1
336.75,-6.95,2.316175,84.07,59.875,8.625,-25.375,1
337.0,4.02,2.349467,84.12,59.75,8.125,-25.0,1
337.25,-12.31,2.376357,84.12,59.875,9.0,-25.125,1
337.5,10.14,2.389162,84.12,60.0,8.625,-25.0,1
337.75,-11.32,2.403247,84.12,59.875,8.625,-25.0,1
338.0,-13.27,2.399406,84.2,60.0,8.0,-25.0,1
338.25,9.78,2.399406,84.2,59.75,8.0,-25.25,1
338.5,-6.07,2.380199,84.2,59.875,8.5,-25.5,1
338.75,0.69,2.372516,84.2,59.875,8.25,-25.125,1
339.0,3.35,2.35715,84.27,59.625,8.875,-25.0,1
339.25,1.34,2.349467,84.27,59.875,8.875,-25.0,1
339.5,5.7,2.341784,84.27,59.625,8.5,-25.375,1
339.75,1.21,2.345626,84.27,60.0,8.25,-24.875,1
340.0,2.73,2.363552,84.33,59.75,8.875,-25.5,0
340.25,-0.79,2.386601,84.33,59.75,8.125,-24.875,0
340.5,-3.19,2.418613,84.33,60.0,9.0,-25.75,0
340.75,2.29,2.441662,84.33,59.625,8.5,-25.125,0
341.0,-4.67,2.458308,84.4,60.125,8.375,-24.625,0
341.25,-10.83,2.471113,84.4,59.875,8.75,-24.375,0
341.5,-2.43,2.469832,84.4,60.125,8.5,-25.625,0
341.75,0.17,2.476235,84.4,60.0,8.25,-25.0,0
342.0,-7.99,2.495442,84.4,59.5,9.0,-25.125,0
342.25,18.34,2.5799540000000003,84.4,60.125,8.0,-25.125,0
342.5,-7.55,2.7220880000000003,84.4,60.125,8.75,-24.25,0
342.75,0.42,2.8744650000000003,84.4,60.25,8.0,-24.125,0
343.0,5.92,2.973062,84.38,60.0,8.375,-24.625,0
343.25,2.98,3.008642,84.38,59.875,8.0,-24.625,0
343.5,-5.96,2.995837,84.38,60.375,7.875,-24.375,0
343.75,-3.66,2.959984,84.38,59.875,8.75,-25.0,0
344.0,3.11,2.89724,84.43,60.375,8.0,-24.625,0
344.25,-5.36,2.831935,84.43,60.0,8.25,-24.5,0
344.5,0.66,2.7666310000000003,84.43,60.125,8.0,-24.125,0
344.75,1.46,2.706448,84.43,60.625,7.125,-24.125,0
345.0,-0.5,2.665473,84.5,61.875,6.25,-21.125,0
345.25,-6.77,2.869069,84.5,63.375,4.25,-17.625,0
345.5,-2.46,2.842179,84.5,63.125,3.625,-16.875,0
345.75,-1.54,2.604009,84.5,63.375,3.375,-18.375,0
346.0,22.92,2.721814,84.58,63.0,4.125,-18.0,0
346.25,32.16,2.802484,84.58,63.0,4.875,-19.75,0
346.5,-39.54,2.784558,84.58,61.875,5.125,-20.0,0
346.75,-18.21,2.814009,84.58,60.875,6.75,-22.875,0
347.0,26.88,2.906204,84.58,62.25,7.375,-21.625,0
347.25,-47.29,2.988154,84.58,63.25,5.25,-16.5,0
347.5,-51.79,2.942057,84.58,62.875,2.875,-16.125,0
347.75,73.74,3.048337,84.58,63.75,7.5,-19.625,0
348.0,-1.81,3.13669,84.55,64.125,5.125,-18.25,0
348.25,-18.48,2.821692,84.55,64.0,4.25,-12.75,0
348.5,-11.37,2.839618,84.55,64.5,4.375,-13.625,0
348.75,8.87,3.045776,84.55,64.0,6.375,-16.125,0
349.0,-66.54,2.95102,84.63,63.875,4.5,-14.875,0
349.25,48.05,2.863948,84.63,63.75,5.25,-15.75,0
349.5,96.2,2.916447,84.63,63.5,6.125,-16.75,0
349.75,-37.93,2.967667,84.63,63.375,5.875,-16.625,0
350.0,-36.95,2.997118,84.78,63.625,5.625,-16.125,0
350.25,-10.38,2.952301,84.78,63.875,5.0,-15.0,0
350.5,4.91,2.957423,84.78,63.75,5.75,-15.5,0
350.75,-0.8,2.927972,84.78,63.625,5.875,-15.875,0
351.0,-0.99,2.893399,84.95,63.5,5.875,-16.5,0
351.25,17.18,2.847301,84.95,63.375,6.0,-16.25,0
351.5,-21.74,2.811448,84.95,63.75,6.0,-15.75,0
351.75,0.69,2.79096,84.95,63.75,5.5,-15.5,0
352.0,-11.52,2.762789,85.15,63.75,6.0,-16.0,0
352.25,-1.79,2.734619,85.15,63.875,6.0,-16.0,0
352.5,4.53,2.720533,85.15,79.0,6.25,11.375,0
352.75,-2.09,2.751265,85.15,34.375,36.5,17.125,0
353.0,-19.59,2.780716,85.42,22.875,49.125,25.0,0
353.25,-7.0,2.633461,85.42,2.125,53.0,30.375,0
353.5,-8.51,2.482364,85.42,6.875,52.125,34.0,0
353.75,-50.7,2.487486,85.42,11.75,52.0,36.0,0
354.0,153.86,2.477242,85.6,-14.25,50.375,31.625,0
354.25,59.32,2.47212,85.6,-15.125,48.0,34.875,0
354.5,22.07,2.437547,85.6,-2.25,30.875,22.25,0
354.75,-33.6,2.567149,85.6,86.0,29.75,-17.0,0
355.0,-67.28,2.546661,85.8,62.125,5.5,-11.25,0
355.25,42.39,2.652941,85.8,61.0,10.125,-12.875,0
355.5,147.33,2.783551,85.8,63.75,12.0,-15.75,0
355.75,-26.29,2.83477,85.8,63.0,13.5,-15.375,0
356.0,-46.56,2.820685,85.95,63.875,7.75,-8.875,0
356.25,-19.37,2.813002,85.95,65.25,0.875,-3.5,0
356.5,-8.52,2.560747,85.95,65.0,9.5,-10.25,0
356.75,-9.61,2.54282,85.95,65.0,6.125,-8.25,0
357.0,-2.13,2.5082470000000003,86.13,64.75,6.0,-8.25,0
357.25,25.14,2.495442,86.13,65.0,7.625,-8.75,0
357.5,43.34,2.469832,86.13,65.0,6.75,-9.125,0
357.75,-48.91,2.449345,86.13,64.875,7.0,-8.5,0
358.0,7.87,2.430137,86.25,65.125,7.25,-9.25,0
358.25,1.42,2.413491,86.25,64.25,7.5,-9.625,0
358.5,1.67,2.400687,86.25,63.125,11.0,-17.25,0
358.75,-12.34,2.366113,86.25,63.25,4.5,-15.125,0
359.0,6.56,2.439101,86.35,62.875,10.0,-19.375,0
359.25,-10.45,2.469832,86.35,63.0,8.5,-17.625,0
359.5,-3.73,2.467272,86.35,63.0,5.625,-16.25,0
359.75,-13.37,2.469832,86.35,62.75,8.25,-18.5,0
360.0,123.95,2.455747,86.38,62.625,8.75,-18.125,0
360.25,-39.99,2.428857,86.38,62.75,10.25,-18.625,0
360.5,-53.27,2.239346,86.38,63.25,4.625,-13.375,0
360.75,24.02,2.227821,86.38,63.375,8.625,-17.625,0
361.0,2.75,2.211175,86.38,63.125,8.875,-16.625,0
361.25,-31.09,2.206053,86.38,63.0,6.125,-15.125,0
361.5,30.58,2.257272,86.38,63.875,4.25,-16.75,0
361.75,73.04,2.472394,86.38,63.125,7.625,-17.5,0
362.0,-6.82,2.519771,86.3,63.75,5.625,-16.75,0
362.25,-23.07,2.532576,86.3,63.875,4.875,-15.625,0
362.5,41.49,2.540259,86.3,63.5,6.125,-16.125,0
362.75,7.34,2.544101,86.3,63.5,5.625,-16.25,0
363.0,-26.34,2.550503,86.28,63.75,5.5,-16.0,0
363.25,-10.23,2.555625,86.28,63.625,6.0,-16.0,0
363.5,8.3,2.565869,86.28,63.625,6.0,-16.25,0
363.75,-6.53,2.56971,86.28,63.75,5.125,-16.125,0
364.0,-3.85,2.56971,86.28,63.375,6.125,-16.25,0
364.25,10.53,2.567149,86.28,63.875,4.375,-16.125,0
364.5,-3.06,2.563308,86.28,63.75,5.375,-16.375,0
364.75,0.67,2.562027,86.28,63.5,5.875,-16.125,0
365.0,-5.68,2.567149,86.25,63.625,5.375,-16.0,0
365.25,21.56,2.565869,86.25,63.375,5.5,-16.125,0
365.5,-12.77,2.574832,86.25,63.5,5.25,-15.875,0
365.75,1.22,2.5761130000000003,86.25,63.875,5.25,-16.625,0
366.0,0.02,2.5761130000000003,86.37,63.375,5.75,-16.125,0
366.25,-0.88,2.577393,86.37,63.375,5.375,-16.0,0
366.5,7.8,2.56971,86.37,64.375,5.625,-18.75,0
366.75,-11.23,2.563308,86.37,62.875,9.25,-14.625,0
367.0,-3.35,2.423735,86.55,63.125,4.75,-11.5,0
367.25,7.38,2.391723,86.55,64.0,5.375,-13.25,0
367.5,-4.4,2.446784,86.55,63.5,9.125,-15.875,0
367.75,-25.24,2.522332,86.55,63.75,9.875,-15.25,0
368.0,22.69,2.570991,86.82,64.25,2.125,-10.0,0
368.25,46.8,2.638856,86.82,64.0,8.625,-15.375,0
368.5,37.52,2.669588,86.82,63.75,9.5,-15.625,0
368.75,-54.51,2.690076,86.82,64.125,4.25,-12.25,0
369.0,-7.29,2.710563,87.13,64.125,5.25,-11.5,0
369.25,59.46,2.719527,87.13,64.0,8.25,-14.125,0
369.5,-10.47,2.6913560000000003,87.13,64.0,7.875,-13.25,0
369.75,-47.64,2.6580630000000003,87.13,64.5,4.375,-11.75,0
370.0,15.53,2.6491,87.42,63.75,7.875,-13.25,0
370.25,36.62,2.6183680000000003,87.42,64.25,8.125,-13.75,0
370.5,-32.93,2.608125,87.42,64.75,4.75,-12.5,0
370.75,12.64,2.601722,87.42,63.75,9.0,-14.125,0
371.0,23.48,2.588917,87.47,64.375,3.75,-12.375,0
371.25,-19.28,2.570991,87.47,63.75,8.5,-13.625,0
371.5,-23.02,2.558186,87.47,64.625,4.875,-12.875,0
371.75,11.7,2.550503,87.47,63.5,8.25,-13.375,0
372.0,18.33,2.555625,87.42,64.75,5.5,-13.0,0
372.25,7.1,2.538979,87.42,64.25,7.25,-13.125,0
372.5,13.47,2.546661,87.42,64.125,6.25,-13.0,0
372.75,-3.92,2.54282,87.42,64.0,6.875,-13.125,0
373.0,10.2,2.54282,87.38,64.125,6.0,-13.375,0
373.25,2.1,2.544101,87.38,63.5,7.25,-13.375,0
373.5,-14.21,2.537698,87.38,65.25,3.5,-12.25,0
373.75,-8.27,2.537698,87.38,63.375,9.25,-14.375,0
374.0,-3.61,2.536417,87.05,64.375,6.375,-14.125,0
374.25,-18.8,2.526174,87.05,64.125,6.375,-12.75,0
374.5,33.85,2.532576,87.05,63.25,8.5,-14.0,0
374.75,23.2,2.532576,87.05,64.125,6.625,-13.5,0
375.0,-29.18,2.536417,86.78,64.0,7.25,-13.375,0
375.25,-11.44,2.540259,86.78,64.0,7.0,-13.5,0
375.5,44.68,2.54282,86.78,64.0,6.125,-13.0,0
375.75,-10.76,2.546661,86.78,64.0,7.0,-13.5,0
376.0,2.4,2.544101,86.52,64.0,7.0,-13.125,0
376.25,-2.91,2.547942,86.52,64.0,7.0,-13.375,0
376.5,-1.93,2.550503,86.52,64.0,7.0,-13.625,0
376.75,2.3,2.560747,86.52,64.0,7.0,-13.5,0
377.0,-4.2,2.562027,86.27,64.0,7.0,-13.125,0
377.25,-5.95,2.565869,86.27,64.0,7.0,-13.375,0
377.5,3.58,2.56843,86.27,64.0,6.875,-13.25,0
377.75,-8.46,2.563308,86.27,64.0,6.875,-13.125,0
378.0,1.89,2.56843,86.07,63.875,6.875,-13.25,0
378.25,-3.5,2.56843,86.07,64.0,7.0,-13.25,0
378.5,3.35,2.567149,86.07,64.0,7.0,-13.25,0
378.75,2.37,2.5786740000000004,86.07,64.0,7.0,-13.125,0
379.0,6.98,2.6158080000000004,85.83,64.0,7.0,-13.125,0
379.25,5.12,2.6887950000000003,85.83,64.0,7.0,-13.125,0
379.5,5.3,2.797636,85.83,64.0,7.0,-13.0,0
379.75,5.16,2.878307,85.83,64.125,7.0,-13.375,0
380.0,4.05,2.920563,85.58,64.375,6.25,-13.125,0
380.25,1.67,2.918001,85.58,64.0,5.0,-12.375,0
380.5,-0.21,2.980745,85.58,64.375,3.5,-12.125,0
380.75,4.21,3.061142,85.58,64.75,3.0,-13.25,0
381.0,-2.27,3.075227,85.32,64.625,2.625,-12.375,0
381.25,6.58,3.049618,85.32,64.625,2.125,-12.625,0
381.5,10.58,3.018886,85.32,64.875,3.0,-14.125,0
381.75,24.76,2.971508,85.32,64.5,5.125,-14.125,0
382.0,-29.69,2.89596,85.1,64.375,3.875,-13.0,0
382.25,-12.37,2.775594,85.1,64.25,3.5,-12.125,0
382.5,-10.32,2.6616310000000003,85.1,63.875,6.375,-12.875,0
382.75,-7.49,2.641144,85.1,64.75,5.125,-12.75,0
383.0,-0.17,2.63218,85.07,64.25,6.625,-12.125,0
383.25,-1.32,2.559193,85.07,64.25,6.875,-12.0,0
383.5,30.9,2.536144,85.07,64.625,6.125,-11.375,0
383.75,-14.25,2.483644,85.07,64.625,6.125,-11.5,0
384.0,-9.94,2.4734,85.03,64.5,6.375,-12.125,0
384.25,2.29,2.466998,85.03,64.125,6.375,-11.75,0
384.5,31.11,2.468278,85.03,64.375,6.75,-12.0,0
384.75,35.88,2.468278,85.03,64.625,6.25,-11.5,0
385.0,-24.2,2.486205,85.03,64.625,6.625,-11.5,0
385.25,-14.89,2.528461,85.03,64.375,6.125,-11.5,0
385.5,-6.83,2.571997,85.03,64.375,6.0,-11.25,0
385.75,5.25,2.612973,85.03,64.5,6.75,-11.75,0
386.0,-14.2,2.6180950000000003,84.93,63.875,6.25,-11.625,0
386.25,-4.88,2.629619,84.93,63.125,9.875,-18.125,0
386.5,-3.58,2.995837,84.93,73.625,13.25,-16.875,0
386.75,-7.35,2.972789,84.93,45.375,27.25,1.375,0
387.0,-2.78,3.300592,84.83,54.5,38.0,-2.5,1
387.25,-9.61,3.377421,84.83,51.125,36.75,-0.625,1
387.5,-4.57,3.422238,84.83,42.5,42.375,-16.0,1
387.75,147.78,3.349251,84.83,61.125,27.25,-10.875,1
388.0,9.76,3.253214,84.52,54.375,17.875,-21.125,1
388.25,18.78,3.40175,84.52,69.125,9.125,-24.625,1
388.5,-4.14,3.344129,84.52,63.0,8.5,-16.625,1
388.75,-64.89,3.3210800000000003,84.52,62.875,7.875,-15.5,1
389.0,-15.32,3.280104,83.9,63.625,7.75,-16.125,1
389.25,-131.72,3.248092,83.9,63.75,7.75,-17.25,1
389.5,9.81,3.226324,83.9,63.875,4.625,-9.75,1
389.75,41.44,3.219922,83.9,64.0,10.125,-16.0,1
390.0,-11.34,3.228885,83.33,64.25,7.125,-14.375,1
390.25,4.14,3.24297,83.33,64.625,4.0,-7.875,1
390.5,-14.31,3.249373,83.33,63.625,9.25,-11.625,1
390.75,6.05,3.29419,83.33,64.625,8.875,-13.75,1
391.0,12.88,3.369738,82.78,65.0,4.875,-10.125,1
391.25,-41.77,3.446567,82.78,63.875,6.0,-8.75,1
391.5,26.49,3.497787,82.78,64.125,11.5,-15.375,1
391.75,6.75,3.4981980000000004,82.78,64.5,4.875,-11.5,1
392.0,-14.47,3.4905150000000003,82.23,64.125,5.5,-10.375,1
392.25,-26.17,3.4700269999999995,82.23,76.875,9.375,-16.375,1
392.5,32.51,3.440576,82.23,49.375,23.0,25.625,1
392.75,15.73,3.408564,82.23,17.25,46.25,23.125,1
393.0,-17.4,2.970639,81.83,-0.75,54.375,24.75,1
393.25,38.04,2.800334,81.83,7.0,53.75,30.875,1
393.5,-22.09,2.73846,81.83,5.625,54.25,30.5,1
393.75,-23.79,2.688521,81.83,-8.125,53.25,31.5,1
394.0,29.66,2.556632,81.48,-20.125,51.0,32.125,1
394.25,-5.96,2.575839,81.48,14.75,65.125,17.125,1
394.5,-66.61,2.610412,81.48,18.0,44.25,31.25,1
394.75,-13.13,2.496449,81.48,-3.25,54.75,31.25,1
395.0,76.66,2.304376,81.08,-28.875,48.0,31.25,1
395.25,114.86,1.807823,81.08,-32.125,41.625,28.0,1
395.5,-36.37,2.0391630000000003,81.08,-47.5,34.5,17.375,1
395.75,-133.86,2.246601,81.08,-19.625,35.125,10.125,1
396.0,-55.57,1.967456,81.0,81.5,31.375,-2.875,1
396.25,86.35,2.014834,81.0,61.125,7.0,-26.75,1
396.5,32.59,2.340076,81.0,63.25,13.625,-20.25,1
396.75,-72.3,2.255564,81.0,63.5,10.625,-11.0,1
397.0,63.88,2.317028,81.03,64.0,10.625,-7.75,1
397.25,232.07,2.45532,81.03,63.875,14.125,-11.375,1
397.5,-162.73,2.519771,81.03,64.125,11.5,-9.5,1
397.75,-162.29,2.5863560000000003,81.03,63.625,12.375,-9.75,1
398.0,19.79,2.6478200000000003,81.03,63.75,12.875,-10.125,0
398.25,-59.32,2.655503,81.03,64.0,11.75,-9.5,0
398.5,-2.94,2.669588,81.03,63.25,12.5,-9.875,0
398.75,2.74,2.667027,81.03,61.75,15.0,-18.625,0
399.0,18.24,2.770746,81.05,60.125,15.5,-20.375,0
399.25,16.4,2.816843,81.05,60.5,15.125,-19.875,0
399.5,-13.16,2.853977,81.05,61.75,14.25,-18.875,0
399.75,-11.51,2.772027,81.05,62.875,11.125,-14.875,0
400.0,-44.73,2.773307,81.03,63.0,12.125,-13.375,0
400.25,45.26,2.7963560000000003,81.03,62.875,13.375,-13.375,0
400.5,11.83,2.836051,81.03,64.0,12.25,-15.25,0
400.75,-13.28,2.916721,81.03,63.0,9.25,-10.625,0
401.0,-19.93,3.039647,81.03,63.125,14.25,-14.25,0
401.25,31.54,3.249373,81.03,63.875,11.75,-13.75,0
401.5,19.73,3.264739,81.03,63.875,8.625,-9.25,0
401.75,-5.66,3.319799,81.03,63.125,13.875,-11.75,0
402.0,-3.5,3.29547,81.05,64.125,12.0,-12.0,0
402.25,34.52,3.2993120000000005,81.05,64.125,9.625,-9.75,0
402.5,-46.75,3.249373,81.05,63.5,13.0,-11.75,0
402.75,24.6,3.194312,81.05,63.875,11.375,-12.0,0
403.0,3.06,3.13669,81.02,63.75,11.375,-12.0,0
403.25,-4.83,3.075227,81.02,63.625,12.0,-12.25,0
403.5,3.98,3.022727,81.02,63.875,11.75,-12.0,0
403.75,-0.02,2.980471,81.02,63.875,11.75,-12.0,0
404.0,-5.95,2.942057,80.92,63.875,11.875,-12.0,0
404.25,-1.67,2.911325,80.92,63.625,12.0,-12.0,0
404.5,-3.68,2.889557,80.92,63.875,11.875,-12.0,0
404.75,-2.95,2.87035,80.92,63.875,11.375,-12.25,0
405.0,-0.41,2.853704,80.83,63.5,11.25,-12.0,0
405.25,-7.23,2.842179,80.83,63.75,10.875,-12.0,0
405.5,0.01,2.826813,80.83,63.875,12.0,-12.5,0
405.75,-0.96,2.81785,80.83,63.75,11.0,-12.0,0
406.0,0.3,2.8076060000000003,80.72,63.75,11.625,-12.0,0
406.25,3.05,2.802484,80.72,63.75,11.25,-12.0,0
406.5,-1.78,2.797362,80.72,63.625,11.0,-12.0,0
406.75,2.9,2.79096,80.72,63.625,11.0,-12.0,0
407.0,2.61,2.787118,80.63,63.75,11.0,-12.0,0
407.25,0.15,2.784558,80.63,63.875,11.0,-12.0,0
407.5,-3.92,2.788399,80.63,63.75,11.25,-12.0,0
407.75,4.05,2.793521,80.63,64.0,11.0,-12.25,0
408.0,-0.45,2.79096,80.6,63.5,11.125,-12.0,0
408.25,6.14,2.785838,80.6,63.625,11.125,-12.0,0
408.5,3.11,2.787118,80.6,63.875,11.125,-12.0,0
408.75,2.25,2.779436,80.6,63.875,11.0,-12.0,0
409.0,2.04,2.779436,80.65,64.0,11.0,-12.0,0
409.25,-8.13,2.778155,80.65,63.75,11.0,-12.0,0
409.5,3.78,2.774314,80.65,63.875,11.0,-12.125,0
409.75,-7.41,2.783277,80.65,63.875,11.0,-12.0,0
410.0,5.02,2.779436,80.62,63.875,10.375,-11.75,0
410.25,0.29,2.779436,80.62,64.0,10.625,-11.25,0
410.5,6.92,2.771753,80.62,64.25,8.875,-10.125,0
410.75,3.93,2.7704720000000003,80.62,63.875,12.0,-12.0,0
411.0,6.73,2.769192,80.58,64.25,10.0,-11.5,0
411.25,-13.16,2.771753,80.58,63.875,9.75,-10.75,0
411.5,16.71,2.778155,80.58,64.0,10.625,-11.375,0
411.75,13.49,2.781997,80.58,64.125,10.75,-11.375,0
412.0,-18.19,2.787118,80.52,64.25,9.625,-10.375,0
412.25,-4.6,2.78968,80.52,64.0,10.625,-11.0,0
412.5,13.58,2.793521,80.52,64.0,10.0,-11.0,0
412.75,0.78,2.78968,80.52,64.125,10.125,-11.0,0
413.0,2.98,2.793521,80.38,64.0,10.125,-11.0,0
413.25,-5.79,2.793521,80.38,64.0,10.0,-11.0,0
413.5,-10.86,2.794801,80.38,64.0,10.0,-11.0,0
413.75,-5.36,2.798643,80.38,64.0,9.875,-11.0,0
414.0,-1.93,2.798643,80.3,64.0,9.875,-11.0,0
414.25,1.27,2.8037650000000003,80.3,64.0,10.0,-11.125,0
414.5,-0.56,2.8076060000000003,80.3,64.0,10.0,-11.25,0
414.75,3.39,2.8037650000000003,80.3,64.25,10.0,-11.0,0
415.0,0.78,2.806326,80.3,64.0,10.0,-11.25,0
415.25,-0.12,2.808887,80.3,64.375,9.75,-10.875,0
415.5,2.33,2.811448,80.3,63.75,10.125,-11.125,0
415.75,-3.39,2.821692,80.3,64.125,9.5,-11.125,0
416.0,1.81,2.81785,80.28,64.125,10.625,-11.25,0
416.25,-1.2,2.820411,80.28,63.875,10.0,-11.625,0
416.5,-0.25,2.819131,80.28,63.75,10.125,-11.375,0
416.75,-9.42,2.819131,80.28,64.375,10.5,-11.625,0
417.0,2.52,2.811448,80.23,64.0,10.625,-11.25,0
417.25,12.64,2.810167,80.23,64.0,10.75,-11.125,0
417.5,-4.18,2.811448,80.23,64.0,10.125,-11.375,0
417.75,4.76,2.819131,80.23,64.0,10.0,-11.125,0
418.0,-4.04,2.826813,80.2,64.0,10.0,-11.25,0
418.25,-6.53,2.831935,80.2,64.0,10.0,-11.125,0
418.5,2.66,2.830655,80.2,64.0,10.25,-11.125,0
418.75,-3.29,2.834496,80.2,63.875,10.75,-11.5,0
419.0,2.96,2.828094,80.17,64.125,10.25,-11.75,0
419.25,-3.0,2.830655,80.17,63.875,9.0,-9.75,0
419.5,-1.5,2.839618,80.17,64.25,10.25,-12.25,0
419.75,-4.21,2.846021,80.17,63.875,10.75,-10.875,0
420.0,1.59,2.8408990000000003,80.17,64.0,10.125,-11.375,0
420.25,2.31,2.852423,80.17,63.75,10.125,-11.0,0
420.5,-12.03,2.852423,80.17,64.0,10.125,-11.5,0
420.75,-0.49,2.853704,80.17,64.125,10.0,-10.875,0
421.0,-7.47,2.848582,80.18,64.125,10.0,-11.125,0
421.25,20.65,2.849862,80.18,64.0,9.875,-11.125,0
421.5,-10.15,2.854984,80.18,64.0,9.125,-11.125,0
421.75,8.03,2.854984,80.18,64.0,9.875,-11.0,0
422.0,-0.75,2.863948,80.22,64.125,9.875,-11.0,0
422.25,6.64,2.866508,80.22,74.5,12.375,-6.5,0
422.5,-1.32,2.854984,80.22,55.375,37.25,12.75,0
422.75,5.99,2.876752,80.22,16.25,47.75,25.75,0
423.0,-1.98,2.7294970000000003,80.2,8.5,43.25,30.5,0
423.25,6.56,2.483644,80.2,-10.625,51.625,37.0,0
423.5,11.15,2.399132,80.2,-26.5,38.375,33.625,0
423.75,25.67,2.558186,80.2,-37.875,38.875,13.5,0
424.0,-21.33,2.467272,80.18,16.125,33.625,26.875,0
424.25,-0.56,2.268797,80.18,82.0,14.25,-10.25,0
424.5,-17.55,2.412211,80.18,66.875,9.75,-17.875,0
424.75,59.21,2.372516,80.18,64.125,8.875,-8.75,0
425.0,-45.69,2.428857,80.1,64.5,9.375,-9.375,0
425.25,98.44,2.483918,80.1,64.875,9.375,-8.875,0
425.5,-69.51,2.5825150000000003,80.1,64.875,8.125,-7.75,0
425.75,-82.44,2.655503,80.1,65.0,9.0,-7.875,0
426.0,-39.36,2.70288,79.9,64.875,8.125,-7.0,0
426.25,18.07,2.743856,79.9,64.75,8.5,-6.75,0
426.5,13.14,2.7656240000000003,79.9,64.75,8.0,-6.375,0
426.75,4.74,2.784831,79.9,64.875,8.25,-7.625,0
427.0,-16.75,2.786112,79.67,64.875,8.625,-6.0,0
427.25,-0.89,2.786112,79.67,65.0,9.0,-5.625,0
427.5,-11.99,2.768185,79.67,64.875,9.0,-5.5,0
427.75,12.89,2.7541,79.67,64.875,8.375,-6.0,0
428.0,-5.29,2.724648,79.3,64.75,8.75,-6.0,0
428.25,-0.81,2.72721,79.3,65.125,8.25,-5.875,0
428.5,17.64,2.745136,79.3,64.75,8.875,-5.625,0
428.75,8.75,2.747697,79.3,65.125,8.125,-4.75,0
429.0,9.96,2.732332,78.9,64.875,8.875,-5.5,0
429.25,-22.66,2.7541,78.9,65.125,8.375,-6.25,0
429.5,0.26,2.7630630000000003,78.9,65.0,8.25,-4.75,0
429.75,-14.93,2.752819,78.9,65.0,8.875,-5.375,0
430.0,3.82,2.7630630000000003,78.55,65.0,8.375,-6.25,0
430.25,8.92,2.827087,78.55,64.875,9.0,-6.75,0
430.5,-3.57,2.877026,78.55,65.0,9.0,-6.625,0
430.75,-14.0,2.919282,78.55,65.0,8.875,-5.875,0
431.0,10.75,2.937209,78.53,64.75,9.125,-8.0,0
431.25,4.73,2.925684,78.53,64.5,9.375,-9.5,0
431.5,-12.04,2.9794650000000003,78.53,64.25,10.0,-12.375,0
431.75,1.65,2.963825,78.53,64.125,10.0,-11.75,0
432.0,-9.08,2.939496,78.63,64.625,10.0,-10.5,0
432.25,7.67,2.961264,78.63,64.0,9.25,-10.0,0
432.5,1.08,2.894679,78.63,64.125,10.25,-11.375,0
432.75,17.5,2.872911,78.63,64.25,9.625,-9.75,0
433.0,2.9,2.834496,78.72,64.25,9.5,-10.75,0
433.25,6.98,2.856265,78.72,63.875,10.25,-13.375,0
433.5,-4.69,2.861387,78.72,63.25,10.0,-15.0,0
433.75,3.42,2.854984,78.72,63.625,10.25,-11.625,0
434.0,9.29,2.847301,79.08,64.0,10.75,-14.0,0
434.25,-42.76,2.830655,79.08,63.25,11.125,-13.25,0
434.5,15.99,2.79224,79.08,63.625,9.125,-12.5,0
434.75,16.97,2.821692,79.08,63.5,11.875,-15.625,0
435.0,-14.22,2.81785,79.38,62.75,13.0,-15.125,0
435.25,28.54,2.860106,79.38,63.125,9.0,-12.875,0
435.5,-4.23,2.930533,79.38,63.0,12.375,-14.625,0
435.75,44.71,2.954862,79.38,63.5,10.875,-13.75,0
436.0,-18.79,2.997118,79.73,63.375,9.875,-14.25,0
436.25,-2.16,3.03041,79.73,63.75,10.125,-13.75,0
436.5,38.24,3.064983,79.73,64.0,9.5,-12.875,0
436.75,51.67,3.080349,79.73,64.0,9.875,-13.0,0
437.0,-26.98,3.145654,80.07,64.0,10.0,-13.0,0
437.25,-26.34,3.244251,80.07,63.875,10.0,-13.125,0
437.5,37.61,3.330043,80.07,63.5,10.0,-12.625,0
437.75,-16.6,3.3953480000000003,80.07,63.75,10.0,-12.75,0
438.0,-11.91,3.45297,80.33,63.75,9.625,-13.375,0
438.25,-7.91,3.435454,80.33,63.625,9.75,-13.0,0
438.5,-13.36,3.444417,80.33,63.75,10.0,-12.5,0
438.75,-0.37,3.417527,80.33,64.0,9.625,-12.875,0
439.0,6.25,3.3880760000000003,80.6,64.5,10.0,-12.625,0
439.25,26.58,3.222894,80.6,63.875,9.625,-11.5,0
439.5,-14.25,3.2395400000000003,80.6,63.5,9.875,-14.125,0
439.75,29.85,3.324052,80.6,63.375,10.25,-15.25,0
440.0,28.31,3.231857,80.87,63.375,10.0,-13.625,0
440.25,-22.34,3.3624660000000004,80.87,63.875,10.0,-12.25,0
440.5,-61.04,3.420088,80.87,64.125,9.875,-11.875,0
440.75,-11.68,3.441856,80.87,64.0,9.125,-11.875,0
441.0,50.31,3.413686,81.18,63.875,9.0,-12.0,0
441.25,6.68,3.411125,81.18,63.875,9.0,-12.0,0
441.5,1.1,3.403442,81.18,63.75,9.125,-12.0,0
441.75,20.3,3.389357,81.18,64.75,9.0,-11.375,0
442.0,53.38,3.3880760000000003,81.42,64.0,9.375,-11.25,0
442.25,-37.47,3.366308,81.42,63.75,10.0,-12.5,0
442.5,-15.62,3.304845,81.42,63.75,9.875,-12.125,0
442.75,-12.75,3.289479,81.42,64.125,9.125,-11.125,0
443.0,-13.86,3.331735,81.65,63.25,9.125,-7.25,0
443.25,-37.23,3.135821,81.65,64.5,9.0,-9.625,0
443.5,32.55,3.252345,81.65,64.0,9.5,-11.0,0
443.75,9.77,3.353503,81.65,63.875,9.125,-10.875,0
444.0,-9.9,3.404722,81.87,64.5,9.0,-11.0,0
444.25,-10.96,3.5007589999999995,81.87,64.125,8.625,-12.5,0
444.5,-2.24,3.5852699999999995,81.87,63.875,7.125,-9.0,0
444.75,-22.61,3.659539,81.87,64.75,7.5,-11.25,0
445.0,32.02,3.7376480000000014,82.08,64.25,8.375,-9.875,0
445.25,-35.24,3.751733,82.08,64.125,8.0,-11.375,0
445.5,26.34,3.745331,82.08,64.25,8.0,-11.125,0
445.75,15.43,3.703075,82.08,64.25,8.125,-10.5,0
446.0,-14.23,3.655697,82.42,64.375,8.375,-11.125,0
446.25,-15.83,3.591673,82.42,64.125,8.875,-11.875,0
446.5,10.22,3.519966,82.42,64.5,8.0,-10.875,0
446.75,14.47,3.471308,82.42,65.125,6.125,-8.75,0
447.0,-28.46,3.480271,82.77,65.0,5.5,-7.875,0
447.25,-12.56,3.4905150000000003,82.77,65.375,5.0,-8.375,0
447.5,25.49,3.468746,82.77,64.875,6.625,-7.875,0
447.75,49.91,3.457222,82.77,65.25,7.25,-2.625,0
448.0,-24.0,3.4649050000000003,83.18,65.5,4.25,-6.375,0
448.25,-14.5,3.3957589999999995,83.18,66.0,5.125,-6.75,0
448.5,-8.94,3.34582,83.18,65.375,6.5,-7.25,0
448.75,13.39,3.2805150000000003,83.18,63.375,8.375,-7.0,0
449.0,23.08,3.210089,83.65,63.25,8.5,-11.875,0
449.25,-6.78,3.1268580000000004,83.65,62.625,11.25,-17.0,0
449.5,-12.9,3.330454,83.65,63.5,11.5,-17.0,0
449.75,10.49,3.4213690000000003,83.65,61.75,10.875,-17.375,0
450.0,19.94,3.4264910000000004,84.15,60.25,11.875,-23.0,0
450.25,24.56,3.379113,84.15,61.875,12.125,-22.75,0
450.5,0.48,3.39832,84.15,74.625,23.0,-16.625,0
450.75,0.91,3.1614310000000003,84.15,21.375,32.375,7.125,0
451.0,-30.89,3.283077,84.72,56.875,30.625,-15.875,0
451.25,-5.48,3.1242970000000003,84.72,87.875,32.0,-16.5,0
451.5,-11.42,2.89381,84.72,13.25,39.75,12.375,0
451.75,-55.07,2.980471,84.72,0.5,52.25,30.125,0
452.0,55.03,2.89596,85.25,-0.375,53.0,32.5,1
452.25,32.02,2.8076060000000003,85.25,-2.5,54.0,32.25,1
452.5,-41.25,2.753826,85.25,1.125,55.375,30.625,1
452.75,-27.7,2.826813,85.25,8.0,54.125,29.5,1
453.0,14.6,2.819131,85.65,2.625,53.625,30.625,1
453.25,41.81,2.849862,85.65,5.375,56.625,31.0,1
453.5,-13.08,2.8780330000000003,85.65,-2.25,56.125,30.625,1
453.75,-70.26,2.907484,85.65,-11.875,47.5,29.625,1
454.0,61.23,2.995837,86.03,-21.875,48.25,18.625,1
454.25,59.65,2.848582,86.03,19.75,42.75,46.75,1
454.5,1.3,2.784558,86.03,41.75,29.875,43.25,1
454.75,-59.24,3.009923,86.03,57.625,22.625,-11.375,1
455.0,-32.83,3.24041,86.45,52.125,13.375,-39.875,1
455.25,-74.55,3.441445,86.45,56.125,14.0,-35.75,1
455.5,84.41,2.935655,86.45,58.375,13.25,-25.125,1
455.75,146.41,2.87035,86.45,59.5,12.125,-26.5,1
456.0,59.25,2.865228,86.37,60.25,12.625,-20.25,1
456.25,-216.75,3.153337,86.37,61.0,14.5,-19.375,1
456.5,-105.9,3.222483,86.37,61.125,14.5,-18.5,1
456.75,49.61,3.166142,86.37,61.625,14.625,-17.5,1
457.0,55.26,3.053459,86.22,62.375,14.0,-14.875,1
457.25,24.14,3.102117,86.22,63.25,11.75,-6.875,1
457.5,-102.91,2.971508,86.22,64.25,12.0,-9.875,1
457.75,1.93,2.953581,86.22,63.125,13.125,-13.875,1
458.0,69.34,2.984313,86.12,63.375,12.5,-14.5,1
458.25,-44.52,2.940777,86.12,63.0,12.0,-14.5,1
458.5,-62.93,2.769192,86.12,63.125,12.25,-15.125,1
458.75,40.2,2.965106,86.12,62.875,12.375,-16.0,1
459.0,-28.08,3.007362,86.0,62.875,11.5,-16.5,1
459.25,-17.09,3.0240080000000003,86.0,63.0,10.25,-14.875,1
459.5,123.46,3.012484,86.0,63.0,10.875,-16.25,1
459.75,1.56,3.009923,86.0,62.625,11.25,-16.75,1
460.0,-31.6,2.991996,85.88,62.5,11.125,-17.0,1
460.25,6.78,2.974069,85.88,62.625,11.125,-16.875,1
460.5,-13.2,2.965106,85.88,62.75,11.625,-17.625,1
460.75,-14.2,2.984313,85.88,62.25,13.375,-18.0,1
461.0,1.08,3.076508,85.72,61.75,12.875,-16.5,1
461.25,5.76,3.199434,85.72,61.875,12.375,-17.125,1
461.5,-2.11,3.289068,85.72,61.375,14.5,-17.5,1
461.75,-3.24,3.322361,85.72,61.375,14.625,-22.125,1
462.0,6.58,3.3236410000000003,85.55,59.75,13.625,-27.375,1
462.25,-7.88,3.444006,85.55,59.625,18.25,-22.5,1
462.5,15.23,3.3646160000000003,85.55,53.0,28.625,-18.125,1
462.75,12.4,3.4145550000000005,85.55,57.75,36.125,-18.0,1
463.0,29.98,3.222483,85.38,36.25,36.875,-5.375,1
463.25,-56.66,3.199434,85.38,44.25,41.125,-8.75,1
463.5,-45.64,3.253214,85.38,58.25,20.875,-21.875,1
463.75,-58.2,3.367177,85.38,68.75,12.75,-28.375,1
464.0,-11.64,3.379982,85.3,58.75,13.0,-26.5,1
464.25,143.38,3.476018,85.3,59.125,12.25,-24.375,1
464.5,73.07,3.4597830000000003,85.3,59.0,11.875,-24.875,1
464.75,-78.45,3.453381,85.3,57.5,13.75,-27.875,1
465.0,-19.97,3.402161,85.15,57.75,13.125,-28.375,0
465.25,60.79,3.34582,85.15,60.25,12.125,-26.25,0
465.5,-10.7,3.2881980000000004,85.15,60.375,12.5,-24.0,0
465.75,-2.3,3.156309,85.15,60.875,11.625,-21.5,0
466.0,-2.01,3.069236,84.97,60.875,10.75,-21.0,0
466.25,-42.47,3.121736,84.97,60.125,14.0,-23.5,0
466.5,-38.79,3.067955,84.97,60.5,10.125,-20.875,0
466.75,-6.64,3.014175,84.97,60.25,12.875,-22.875,0
467.0,46.32,2.983443,84.82,60.5,12.375,-22.625,0
467.25,50.31,2.959114,84.82,60.375,11.625,-21.875,0
467.5,-35.37,2.942057,84.82,60.5,12.625,-22.125,0
467.75,-6.76,2.954862,84.82,60.375,12.0,-22.5,0
468.0,5.02,3.049618,84.62,60.25,12.0,-22.25,0
468.25,-8.31,3.196873,84.62,60.5,11.875,-22.5,0
468.5,14.83,3.3236410000000003,84.62,60.375,11.75,-22.5,0
468.75,-0.2,3.40047,84.62,60.5,12.0,-22.25,0
469.0,13.96,3.413275,84.33,60.375,12.5,-21.375,0
469.25,9.78,3.40175,84.33,60.875,12.25,-21.875,0
469.5,0.08,3.369738,84.33,60.625,10.125,-21.875,0
469.75,-8.91,3.40047,84.33,60.625,12.875,-22.5,0
470.0,-13.12,3.4401650000000004,84.03,61.0,9.625,-21.625,0
470.25,-5.33,3.501628,84.03,61.125,10.125,-21.125,0
470.5,13.87,3.53021,84.03,61.0,11.0,-21.625,0
470.75,6.37,3.53021,84.03,61.0,10.25,-21.375,0
471.0,-10.34,3.5084410000000004,83.65,61.0,10.875,-21.5,0
471.25,-2.58,3.475149,83.65,61.0,11.0,-21.125,0
471.5,-2.18,3.430332,83.65,61.125,10.875,-21.375,0
471.75,-9.57,3.375271,83.65,61.0,10.875,-21.25,0
472.0,-7.91,3.304845,83.28,61.0,11.0,-21.375,0
472.25,-7.97,3.2395400000000003,83.28,60.375,10.875,-21.125,0
472.5,-10.05,3.189601,83.28,53.75,13.5,-33.75,0
472.75,-1.42,2.97448,83.28,48.375,15.5,-40.0,0
473.0,-13.49,2.800334,83.23,48.5,15.375,-40.0,1
473.25,-7.01,2.758948,83.23,54.875,13.0,-33.5,1
473.5,-52.04,2.902362,83.23,60.625,10.25,-20.5,1
473.75,-192.67,2.961264,83.23,60.875,10.0,-22.0,1
474.0,242.51,2.9126060000000003,83.22,60.75,10.5,-22.875,1
474.25,117.04,2.906204,83.22,60.75,9.875,-21.75,1
474.5,27.58,2.894679,83.22,60.5,11.125,-22.375,1
474.75,-198.13,2.899801,83.22,60.75,10.875,-22.625,1
475.0,-78.27,2.894679,83.15,60.375,11.625,-22.375,1
475.25,-13.73,2.915167,83.15,60.625,11.25,-22.0,1
475.5,11.83,2.967667,83.15,60.75,11.625,-22.25,1
475.75,2.84,3.020166,83.15,60.5,12.0,-22.25,1
476.0,15.41,3.079069,83.12,60.75,12.125,-22.0,0
476.25,-0.55,3.112361,83.12,60.5,12.125,-21.75,0
476.5,7.97,3.118764,83.12,60.625,12.25,-21.75,0
476.75,0.49,3.126446,83.12,60.625,12.125,-21.625,0
477.0,14.63,3.105959,83.08,60.875,12.125,-22.0,0
477.25,6.45,3.102117,83.08,60.375,11.625,-21.5,0
477.5,-14.87,3.076508,83.08,61.125,11.5,-21.75,0
477.75,10.67,3.067544,83.08,60.75,11.125,-21.25,0
478.0,1.02,3.099556,83.23,60.875,10.875,-21.875,0
478.25,5.64,3.149495,83.23,61.0,10.5,-21.625,0
478.5,8.83,3.177666,83.23,61.0,9.875,-21.125,0
478.75,-11.11,3.181507,83.23,61.125,10.0,-21.75,0
479.0,10.72,3.176385,83.35,61.25,10.25,-21.625,0
479.25,-4.12,3.159739,83.35,60.875,11.25,-22.0,0
479.5,5.21,3.140532,83.35,61.125,10.5,-21.5,0
479.75,-1.96,3.116203,83.35,60.875,11.125,-21.625,0
480.0,-3.95,3.093154,83.45,60.75,11.5,-21.75,0
480.25,1.41,3.068825,83.45,60.875,11.125,-22.0,0
480.5,-3.06,3.0573,83.45,60.875,11.5,-22.0,0
480.75,1.71,3.043215,83.45,60.625,11.375,-21.625,0
481.0,-14.17,3.053459,83.53,60.625,11.75,-21.5,0
481.25,2.74,3.088032,83.53,60.875,12.25,-22.0,0
481.5,-5.08,3.130288,83.53,61.0,12.0,-21.625,0
481.75,1.92,3.157178,83.53,60.625,11.75,-21.625,0
482.0,-2.15,3.177666,83.63,60.875,11.5,-22.0,0
482.25,-5.19,3.175105,83.63,60.5,11.25,-22.625,0
482.5,0.76,3.169983,83.63,60.125,11.0,-23.0,0
482.75,-8.66,3.166142,83.63,60.0,10.625,-23.125,0
483.0,0.01,3.16102,83.77,58.75,10.25,-25.875,0
483.25,-1.49,3.153337,83.77,53.5,11.625,-34.5,0
483.5,4.64,3.137971,83.77,50.875,11.125,-40.375,0
483.75,-5.07,3.073947,83.77,49.5,11.875,-39.375,0
484.0,-7.03,3.013764,83.15,49.5,12.0,-40.125,0
484.25,-35.47,3.026569,83.15,49.5,12.0,-40.375,0
484.5,-32.9,3.044496,83.15,51.375,12.0,-38.375,0
484.75,80.01,3.140532,83.15,55.25,11.375,-31.75,0
485.0,83.72,3.191751,82.6,56.75,11.0,-30.875,0
485.25,33.13,3.328763,82.6,59.5,10.875,-23.625,0
485.5,-1.73,3.326202,82.6,59.625,11.375,-24.75,0
485.75,30.12,3.34797,82.6,59.25,12.0,-24.5,0
486.0,-67.7,3.328763,82.07,59.5,12.125,-24.75,0
486.25,-47.76,3.309556,82.07,59.25,12.25,-24.75,0
486.5,-28.52,3.280104,82.07,59.5,12.25,-24.25,0
486.75,-21.85,3.207117,82.07,59.75,12.0,-23.125,0
487.0,-7.53,3.236568,81.52,60.0,12.0,-24.0,0
487.25,-0.15,3.217361,81.52,60.0,12.0,-23.875,0
487.5,-0.62,3.24041,81.52,60.0,12.0,-24.0,0
487.75,0.35,3.24041,81.52,59.875,12.0,-24.0,0
488.0,-13.12,3.24169,81.08,59.875,11.375,-24.125,0
488.25,7.92,3.228885,81.08,60.0,11.0,-24.125,0
488.5,5.86,3.219922,81.08,59.75,10.625,-24.5,0
488.75,7.63,3.205837,81.08,60.0,10.0,-24.75,0
489.0,0.61,3.18919,80.57,59.875,10.0,-24.625,0
489.25,2.55,3.16358,80.57,60.0,10.0,-24.875,0
489.5,0.79,3.145654,80.57,59.875,9.125,-25.0,0
489.75,3.85,3.130288,80.57,59.875,9.0,-25.0,0
490.0,-1.86,3.121325,80.02,56.0,9.75,-29.0,0
490.25,0.84,3.219922,80.02,52.375,10.75,-38.875,0
490.5,0.68,3.196873,80.02,54.625,8.375,-32.875,0
490.75,0.26,3.199434,80.02,56.875,7.0,-29.75,0
491.0,-14.53,3.244251,79.42,57.5,8.125,-30.0,0
491.25,-43.39,3.228885,79.42,59.125,7.125,-25.5,0
491.5,40.89,3.360775,79.42,59.5,8.25,-26.5,0
491.75,20.5,3.415836,79.42,59.25,9.0,-26.75,0
492.0,20.26,3.493945,78.87,59.125,8.5,-25.625,0
492.25,22.9,3.525088,78.87,58.875,10.125,-26.375,0
492.5,-6.26,3.576307,78.87,58.625,10.875,-27.375,0
492.75,21.06,3.695392,78.87,59.5,10.5,-24.625,0
493.0,1.97,3.829843,78.32,60.0,10.25,-23.875,0
493.25,2.2,3.891306,78.32,60.25,10.25,-24.0,0
493.5,-44.6,3.905391,78.32,60.0,10.5,-24.0,0
493.75,6.15,3.877221,78.32,60.125,10.125,-23.875,0
494.0,24.11,3.805513,77.78,59.75,10.875,-24.25,0
494.25,-15.06,3.741489,77.78,59.375,10.75,-25.75,0
494.5,-5.16,3.721002,77.78,59.125,10.375,-25.25,0
494.75,4.31,3.672343,77.78,59.875,10.5,-25.0,0
495.0,4.1,3.66338,77.3,59.25,9.875,-25.125,0
495.25,-13.43,3.630087,77.3,58.25,10.875,-27.125,0
495.5,34.59,3.58271,77.3,57.25,11.125,-29.5,0
495.75,20.11,3.551978,77.3,58.125,10.25,-27.75,0
496.0,-47.05,3.5647830000000003,76.85,58.375,10.0,-27.0,0
496.25,-75.07,3.573746,76.85,58.625,10.25,-26.875,0
496.5,32.16,3.573746,76.85,58.5,11.0,-26.5,0
496.75,91.29,3.5750269999999995,76.85,58.5,10.625,-27.0,0
497.0,33.38,3.586551,76.4,58.625,11.625,-26.125,0
497.25,-23.71,3.578868,76.4,58.625,11.375,-26.0,0
497.5,-33.72,3.5852699999999995,76.4,58.875,11.75,-26.0,0
497.75,-31.04,3.600636,76.4,58.875,12.0,-25.875,0
498.0,3.87,3.613441,76.0,58.625,11.75,-26.0,0
498.25,10.45,3.624965,76.0,58.5,12.0,-26.375,0
498.5,-33.28,3.618563,76.0,58.75,12.0,-26.125,0
498.75,-15.05,3.635209,76.0,59.0,12.0,-25.5,0
499.0,-11.17,3.729965,75.58,59.0,12.0,-26.0,0
499.25,-20.71,3.863135,75.58,58.75,11.75,-25.75,0
499.5,57.97,3.98222,75.58,59.125,11.25,-25.25,0
499.75,75.94,3.913547,75.58,58.375,11.75,-25.375,0
500.0,-65.77,4.030071,75.22,59.75,10.875,-25.25,0
500.25,-3.64,4.0544,75.22,59.0,11.875,-26.0,0
500.5,34.39,4.0454360000000005,75.22,58.875,10.875,-25.25,0
500.75,-40.83,4.017266,75.22,59.125,11.375,-25.625,0
501.0,-0.15,3.994217,74.82,59.0,11.25,-26.0,0
501.25,5.66,3.989095,74.82,59.0,11.0,-25.625,0
501.5,20.96,3.985254,74.82,58.875,11.125,-26.25,0
501.75,1.35,3.967327,74.82,58.625,12.25,-25.625,0
502.0,16.2,3.946839,74.48,59.125,9.875,-24.75,0
502.25,-8.66,3.92251,74.48,58.75,12.125,-27.125,0
502.5,8.16,3.908425,74.48,58.875,11.75,-25.875,0
502.75,-16.98,3.878974,74.48,59.125,10.25,-24.375,0
503.0,23.04,3.854645,74.17,58.625,11.375,-25.5,0
503.25,3.89,3.836718,74.17,59.0,12.375,-26.5,0
503.5,-5.17,3.8187910000000014,74.17,59.125,10.5,-25.375,0
503.75,-2.6,3.804706,74.17,58.75,11.875,-25.75,0
504.0,35.15,3.803425,73.88,59.0,10.875,-25.75,0
504.25,-18.13,3.795742,73.88,59.25,11.25,-25.5,0
504.5,3.69,3.803425,73.88,59.25,11.0,-25.5,0
504.75,1.2,3.809828,73.88,59.0,11.125,-25.875,0
505.0,7.55,3.822633,73.63,59.0,11.0,-25.625,0
505.25,-10.34,3.829035,73.63,59.0,11.0,-25.875,0
505.5,10.29,3.830315,73.63,59.0,11.0,-26.0,0
505.75,-3.38,3.822633,73.63,59.0,11.0,-25.875,0
506.0,5.02,3.829035,73.38,59.0,11.0,-26.0,0
506.25,0.97,3.848242,73.38,59.0,11.0,-25.75,0
506.5,2.27,3.886657,73.38,59.125,10.875,-25.875,0
506.75,1.21,3.910986,73.38,58.875,11.625,-26.0,0
507.0,5.26,3.912266,73.22,58.625,11.125,-25.375,0
507.25,1.66,3.914827,73.22,58.875,11.625,-25.875,0
507.5,-2.03,3.913547,73.22,59.0,11.125,-25.875,0
507.75,-2.11,3.927632,73.22,58.875,11.25,-26.0,0
508.0,-5.67,3.987815,73.0,58.875,11.0,-26.0,0
508.25,4.47,4.0544,73.0,59.0,11.25,-25.875,0
508.5,-15.06,4.092814,73.0,59.0,11.125,-26.0,0
508.75,-1.58,4.118424,73.0,59.0,11.0,-26.0,0
509.0,-5.51,4.131229,72.75,58.875,11.0,-25.875,0
509.25,0.5,4.131229,72.75,59.0,11.0,-26.0,0
509.5,-3.88,4.1171440000000015,72.75,58.875,11.0,-26.0,0
509.75,-0.01,4.082571,72.75,58.875,11.0,-26.0,0
510.0,-3.54,4.049278,72.42,59.0,11.0,-26.0,0
510.25,3.99,4.021107,72.42,58.875,11.25,-25.875,0
510.5,1.26,3.992937,72.42,58.875,11.5,-26.0,0
510.75,4.15,3.969888,72.42,59.0,11.125,-25.875,0
511.0,-5.0,3.953242,72.07,58.875,11.0,-25.875,0
511.25,2.64,3.936595,72.07,58.75,11.0,-26.0,0
511.5,-4.67,3.928913,72.07,59.0,11.125,-26.0,0
511.75,1.33,3.916108,72.07,58.625,11.375,-26.0,0
512.0,-2.49,3.903303,71.77,59.0,11.375,-26.0,0
512.25,-6.4,3.900742,71.77,58.75,11.75,-26.25,0
512.5,5.03,3.886657,71.77,59.0,12.0,-25.125,0
512.75,5.74,3.880254,71.77,58.625,11.875,-24.875,0
513.0,-3.05,3.863608,71.52,58.75,12.625,-26.0,0
513.25,0.39,3.854645,71.52,58.625,12.625,-25.75,0
513.5,-7.97,3.850803,71.52,58.5,12.75,-26.0,0
513.75,-11.22,3.816230000000001,71.52,58.75,12.375,-25.875,0
514.0,32.69,3.848242,71.27,58.625,11.75,-25.75,0
514.25,47.37,3.866169,71.27,58.875,12.0,-26.0,0
514.5,-29.15,3.875132,71.27,59.0,11.875,-26.625,0
514.75,-63.27,3.880254,71.27,58.625,12.625,-26.125,0
515.0,10.15,3.881535,71.0,58.375,12.0,-25.875,0
515.25,30.7,3.882815,71.0,58.0,13.125,-26.75,0
515.5,19.4,3.877693,71.0,58.25,12.25,-26.875,0
515.75,19.67,3.887937,71.0,58.25,12.5,-26.75,0
516.0,-20.99,3.878974,70.97,58.25,12.5,-26.5,0
516.25,-39.7,3.904583,70.97,58.25,12.625,-26.5,0
516.5,-39.69,3.954522,70.97,58.375,12.875,-26.75,0
516.75,62.49,4.035192,70.97,58.0,13.0,-26.625,0
517.0,64.92,4.051839,70.8,57.75,13.0,-26.375,0
517.25,-15.83,4.05312,70.8,58.0,12.875,-27.875,0
517.5,-29.91,4.118424,70.8,57.875,12.125,-27.625,0
517.75,-12.16,4.144034,70.8,58.125,11.875,-27.25,0
518.0,-30.24,4.131229,70.58,58.25,11.75,-26.375,0
518.25,-18.46,4.118424,70.58,59.125,11.625,-26.125,0
518.5,-12.2,4.101778,70.58,58.75,11.75,-25.75,0
518.75,64.52,4.062083,70.58,59.0,11.25,-25.375,0
519.0,38.69,4.056961,70.33,59.25,10.75,-25.375,0
519.25,14.42,4.02879,70.33,59.125,11.0,-25.625,0
519.5,-22.55,4.015985,70.33,59.0,10.875,-26.0,0
519.75,-53.61,4.120985,70.33,59.25,10.125,-25.625,0
520.0,-12.65,4.277204,70.1,59.75,10.0,-25.0,0
520.25,-1.52,4.382204,70.1,59.625,9.875,-25.125,0
520.5,-10.42,4.393728,70.1,59.875,10.0,-24.75,0
520.75,57.11,4.323301,70.1,75.625,9.25,-23.75,0
521.0,14.11,4.32074,69.82,55.875,24.0,22.25,0
521.25,-2.9,4.341228,69.82,-3.625,41.875,21.75,0
521.5,5.38,3.987815,69.82,0.375,51.625,32.125,0
521.75,1.84,3.793181,69.82,11.875,52.0,33.0,0
522.0,-71.43,3.595987,69.55,4.625,51.75,33.125,0
522.25,10.56,3.370622,69.55,-7.5,49.25,35.375,0
522.5,56.94,3.4597830000000003,69.55,0.0,39.0,21.625,0
522.75,7.95,3.512283,69.55,56.625,36.25,-31.75,0
523.0,-38.19,3.608319,69.33,70.125,3.0,-32.125,0
523.25,-0.48,3.489234,69.33,61.5,11.125,-23.375,0
523.5,47.02,3.297162,69.33,62.875,8.125,-16.25,0
523.75,18.65,3.317649,69.33,63.5,8.375,-15.25,0
524.0,35.67,3.330454,69.08,63.25,9.5,-16.125,0
524.25,-99.96,3.3214910000000004,69.08,63.0,8.5,-16.75,0
524.5,-74.41,3.325332,69.08,62.625,10.625,-17.0,0
524.75,-13.73,3.338137,69.08,62.375,9.875,-18.875,0
525.0,18.0,3.2766740000000003,68.88,62.625,9.25,-17.125,0
525.25,-7.17,3.377832,68.88,62.875,8.875,-16.75,0
525.5,-9.42,3.4316120000000003,68.88,62.75,9.875,-17.25,0
525.75,11.64,3.4597830000000003,68.88,62.625,8.625,-17.75,0
526.0,-20.16,3.4930760000000003,68.68,62.875,8.375,-16.5,0
526.25,-29.95,3.605758,68.68,63.25,9.375,-15.125,0
526.5,28.12,3.632648,68.68,63.375,8.625,-16.25,0
526.75,21.93,3.621124,68.68,64.5,8.25,-12.375,0
527.0,-17.36,3.793989,68.45,64.25,8.125,-6.375,0
527.25,-25.21,3.651855,68.45,64.25,7.375,-11.5,0
527.5,40.21,3.810635,68.45,63.625,7.375,-14.5,0
527.75,1.49,3.781184,68.45,63.25,8.75,-16.375,0
528.0,-17.83,3.761977,68.22,63.0,8.125,-16.25,0
528.25,41.6,3.747892,68.22,63.0,8.0,-16.5,0
528.5,1.17,3.732526,68.22,63.0,8.0,-17.0,0
528.75,-19.88,3.746611,68.22,63.0,8.0,-17.0,0
529.0,-5.49,3.719721,67.98,63.0,8.125,-17.0,0
529.25,-1.89,3.719721,67.98,63.0,8.0,-17.0,0
529.5,1.92,3.719721,67.98,63.0,8.0,-17.0,0
529.75,-3.38,3.712038,67.98,63.0,8.0,-17.375,0
530.0,1.97,3.718441,67.8,63.0,8.0,-17.0,0
530.25,-2.77,3.712038,67.8,63.0,8.125,-17.125,0
530.5,1.75,3.709477,67.8,63.125,8.375,-17.375,0
530.75,-4.9,3.710758,67.8,63.0,8.0,-16.875,0
531.0,-0.4,3.706916000000001,67.87,63.125,8.375,-16.875,0
531.25,-4.42,3.699233,67.87,63.375,8.125,-16.625,0
531.5,0.06,3.668502,67.87,63.5,7.375,-14.125,0
531.75,-3.17,3.5673440000000003,67.87,63.75,8.0,-14.5,0
532.0,10.88,3.5750269999999995,67.95,63.375,8.0,-16.0,0
532.25,-2.55,3.578868,67.95,63.125,8.0,-16.125,0
532.5,-11.54,3.578868,67.95,63.375,8.125,-16.25,0
532.75,2.53,3.586551,67.95,63.0,8.0,-16.375,0
533.0,21.1,3.608319,67.77,63.25,8.0,-16.5,0
533.25,-2.46,3.63777,67.77,63.125,8.0,-16.5,0
533.5,-5.95,3.659539,67.77,63.125,8.0,-16.875,0
533.75,-1.53,3.668502,67.77,63.375,8.0,-16.0,0
534.0,-2.57,3.761977,67.55,63.25,8.25,-16.25,0
534.25,3.7,3.765819,67.55,63.0,8.125,-16.625,0
534.5,-1.76,3.782465,67.55,63.125,8.25,-17.0,0
534.75,4.93,3.770941000000001,67.55,62.75,8.75,-17.375,0
535.0,0.36,3.754294,67.32,62.5,8.75,-18.375,0
535.25,-0.87,3.7376480000000014,67.32,62.875,8.75,-18.0,0
535.5,-7.66,3.722282,67.32,62.5,8.75,-17.375,0
535.75,8.06,3.726124,67.32,62.75,8.875,-17.5,0
536.0,-6.7,3.700514,67.12,62.5,9.0,-18.0,0
536.25,2.38,3.697953,67.12,62.75,8.75,-18.375,0
536.5,1.94,3.713319,67.12,62.625,8.625,-17.875,0
536.75,3.25,3.713319,67.12,62.625,9.125,-18.25,0
537.0,-19.29,3.71588,66.97,62.875,8.5,-18.125,0
537.25,11.08,3.71588,66.97,62.75,8.125,-18.375,0
537.5,3.39,3.71716,66.97,62.625,8.0,-18.125,0
537.75,1.28,3.712038,66.97,62.625,8.375,-18.375,0
538.0,3.15,3.71716,66.67,62.625,8.5,-18.25,0
538.25,5.44,3.719721,66.67,62.5,8.375,-18.5,0
538.5,3.73,3.728684,66.67,62.75,8.5,-18.625,0
538.75,6.32,3.7376480000000014,66.67,62.75,8.375,-18.375,0
539.0,-0.98,3.741489,66.43,62.75,8.375,-18.5,0
539.25,2.82,3.746611,66.43,62.625,8.375,-18.625,0
539.5,-0.28,3.747892,66.43,62.625,8.625,-18.5,0
539.75,-3.18,3.746611,66.43,63.625,7.625,-18.625,0
540.0,-1.6,3.753014,66.2,62.0,11.125,-14.875,0
540.25,1.89,3.82344,66.2,63.0,8.25,-17.0,0
540.5,1.49,3.800391,66.2,63.0,8.125,-17.5,0
540.75,5.06,3.800391,66.2,63.0,8.5,-14.75,0
541.0,1.29,3.8093550000000014,65.97,63.625,8.0,-15.75,0
541.25,-9.41,3.8093550000000014,65.97,63.375,8.0,-16.0,0
541.5,8.17,3.805513,65.97,63.375,8.0,-16.0,0
541.75,11.63,3.808074,65.97,63.375,8.0,-16.0,0
542.0,6.53,3.808074,65.73,63.125,8.0,-16.0,0
542.25,-0.43,3.804233,65.73,63.125,8.25,-16.5,0
542.5,1.35,3.801672,65.73,63.125,8.25,-17.25,0
542.75,-2.06,3.718441,65.73,63.125,8.75,-17.25,0
543.0,-1.37,3.692831,65.5,63.0,8.375,-17.0,0
543.25,-2.76,3.66338,65.5,62.875,8.0,-17.25,0
543.5,-4.92,3.651855,65.5,62.875,8.375,-18.5,0
543.75,-4.48,3.639051,65.5,63.0,8.25,-17.75,0
544.0,-1.79,3.63777,65.98,62.875,8.25,-18.0,0
544.25,-3.12,3.63777,65.98,62.75,8.25,-18.0,0
544.5,1.22,3.640331,65.98,62.875,8.0,-18.125,0
544.75,4.5,3.641612,65.98,62.75,7.875,-17.5,0
545.0,1.91,3.648014,66.47,63.0,7.375,-17.0,0
545.25,-6.15,3.66338,66.47,62.625,7.125,-18.125,0
545.5,-3.47,3.845208,66.47,63.5,6.0,-17.75,0
545.75,-3.61,3.884903,66.47,63.625,6.25,-16.375,0
546.0,-0.22,3.891306,66.92,63.625,5.125,-12.25,0
546.25,1.1,3.865696,66.92,64.375,4.875,-13.75,0
546.5,11.71,3.714599,66.92,64.0,5.75,-15.125,0
546.75,3.69,3.793989,66.92,63.875,5.875,-15.625,0
547.0,-4.04,3.829843,67.42,64.0,6.0,-15.875,0
547.25,-10.99,3.836245,67.42,64.125,5.875,-11.875,0
547.5,21.89,3.714599,67.42,64.5,6.25,-11.375,0
547.75,1.94,3.619843,67.42,64.0,6.125,-14.0,0
548.0,-0.21,3.651855,67.83,63.75,5.25,-13.25,0
548.25,-6.78,3.665941000000001,67.83,64.0,6.625,-15.75,0
548.5,-15.16,3.683868,67.83,64.0,6.75,-15.75,0
548.75,34.72,3.695392,67.83,63.875,6.0,-15.375,0
549.0,-0.71,3.7043550000000014,68.37,63.75,6.0,-15.75,0
549.25,-3.17,3.7043550000000014,68.37,63.625,6.0,-16.0,0
549.5,-1.16,3.706916000000001,68.37,63.5,6.0,-16.0,0
549.75,1.4,3.701794,68.37,64.0,6.0,-16.0,0
550.0,2.48,3.705636,68.92,63.875,6.0,-15.875,0
550.25,3.31,3.710758,68.92,63.75,6.0,-16.0,0
550.5,4.12,3.71588,68.92,63.75,6.0,-15.875,0
550.75,6.3,3.724843,68.92,63.875,6.0,-15.875,0
551.0,4.06,3.731246,69.48,63.75,6.0,-15.875,0
551.25,4.5,3.735087,69.48,63.875,6.0,-15.875,0
551.5,-2.85,3.746611,69.48,63.625,6.0,-16.0,0
551.75,2.16,3.749172,69.48,63.875,5.875,-15.875,0
552.0,-1.41,3.755575,70.03,63.75,6.0,-15.875,0
552.25,6.09,3.756855,70.03,63.75,6.0,-15.875,0
552.5,-7.88,3.758136,70.03,63.875,6.0,-16.0,0
552.75,3.99,3.763258,70.03,63.875,6.0,-16.0,0
553.0,-2.89,3.765819,70.67,63.875,6.0,-15.875,0
553.25,5.39,3.763258,70.67,63.875,5.875,-15.625,0
553.5,-5.59,3.760697,70.67,63.875,6.0,-15.625,0
553.75,1.33,3.758136,70.67,63.75,6.0,-15.0,0
554.0,-7.58,3.770941000000001,71.33,63.75,6.25,-15.25,0
554.25,2.86,3.7786230000000014,71.33,63.5,6.0,-15.75,0
554.5,-4.69,3.773501,71.33,63.375,7.0,-17.0,0
554.75,2.1,3.755575,71.33,63.0,7.0,-18.125,0
555.0,0.83,3.694111,72.02,62.875,7.0,-18.75,0
555.25,0.84,3.837526,72.02,62.625,7.25,-18.375,0
555.5,-4.48,3.890025,72.02,62.625,7.0,-18.25,0
555.75,19.76,3.765819,72.02,62.75,7.125,-18.5,0
556.0,-0.4,3.736367,72.58,62.875,7.875,-18.75,0
556.25,-19.24,3.74405,72.58,62.625,7.75,-19.0,0
556.5,-14.44,3.753014,72.58,62.375,7.875,-19.125,0
556.75,8.06,3.773501,72.58,62.375,8.25,-19.125,0
557.0,10.39,3.8093550000000014,73.18,62.375,8.625,-19.0,0
557.25,6.5,3.866977,73.18,62.875,7.875,-18.875,0
557.5,5.08,3.947647,73.18,62.125,9.0,-19.25,0
557.75,-3.36,4.000619,73.18,62.75,7.125,-18.375,0
558.0,-8.85,4.076168,73.78,62.125,8.0,-19.375,0
558.25,4.52,4.152997,73.78,62.25,8.25,-20.375,0
558.5,2.16,4.191411,73.78,62.0,8.125,-20.375,0
558.75,4.54,4.173485,73.78,62.0,7.5,-20.125,0
559.0,12.65,4.178607,74.08,62.0,8.625,-20.375,0
559.25,-4.88,4.249033,74.08,61.875,8.0,-20.125,0
559.5,-17.14,4.251594,74.08,62.5,8.0,-19.375,0
559.75,14.62,4.113302,74.08,62.0,8.25,-20.0,0
560.0,-3.44,4.1709239999999985,74.37,61.75,8.875,-20.75,0
560.25,12.87,4.304094,74.37,61.375,9.0,-21.125,0
560.5,29.44,4.2682400000000005,74.37,61.375,8.875,-22.625,0
560.75,-10.87,4.2400699999999985,74.37,61.0,8.625,-22.375,0
561.0,-21.97,4.185009,74.63,61.125,8.25,-22.125,0
561.25,-28.47,4.144034,74.63,61.625,7.875,-21.125,0
561.5,-21.17,3.857206,74.63,61.875,8.0,-20.5,0
561.75,1.74,3.830315,74.63,62.0,8.0,-20.25,0
562.0,37.19,3.822633,74.9,62.25,8.0,-20.0,0
562.25,22.77,3.81495,74.9,62.125,8.0,-19.5,0
562.5,4.72,3.807267,74.9,62.25,8.0,-19.125,0
562.75,3.53,3.802145,74.9,62.875,7.625,-18.5,0
563.0,4.1,3.793181,75.13,62.375,7.5,-18.125,0
563.25,-1.45,3.702267,75.13,63.0,8.0,-18.5,0
563.5,0.82,3.663853,75.13,63.125,8.0,-18.25,0
563.75,-2.27,3.668975,75.13,62.875,7.0,-17.625,0
564.0,-17.77,3.671535,75.37,62.625,7.0,-18.0,0
564.25,-5.62,3.716352,75.37,62.875,7.125,-18.125,0
564.5,12.81,3.698426,75.37,62.75,7.375,-18.0,0
564.75,-0.52,3.700987000000002,75.37,63.0,7.5,-18.125,0
565.0,-7.5,3.706109,75.57,62.875,8.0,-18.0,0
565.25,-15.66,3.731718,75.57,62.75,8.0,-18.0,0
565.5,18.6,3.73556,75.57,63.0,7.5,-18.0,0
565.75,6.21,3.76373,75.57,63.25,7.625,-18.25,0
566.0,7.67,3.743243,75.82,62.875,8.0,-17.75,0
566.25,-3.03,3.768852,75.82,63.0,8.0,-17.75,0
566.5,6.38,3.802145,75.82,62.5,7.875,-17.625,0
566.75,-12.88,3.866169,75.82,62.875,7.5,-17.125,0
567.0,2.46,3.893059,75.98,63.375,7.625,-17.375,0
567.25,-2.02,3.917388,75.98,62.875,7.875,-17.375,0
567.5,1.34,3.957083,75.98,62.875,8.0,-16.875,0
567.75,1.39,4.012144,75.98,63.125,7.125,-17.0,0
568.0,-6.07,4.115863,76.15,63.25,7.125,-16.375,0
568.25,-9.37,4.147875,76.15,63.25,6.875,-17.125,0
568.5,9.05,4.1145830000000005,76.15,63.25,7.0,-17.0,0
568.75,1.23,4.073607,76.15,63.0,7.0,-17.625,0
569.0,-17.67,4.036473,76.35,63.0,7.0,-17.125,0
569.25,-1.73,3.990376,76.35,63.125,7.0,-17.0,0
569.5,10.5,3.954522,76.35,63.25,7.25,-17.625,0
569.75,2.91,3.927632,76.35,62.75,7.0,-17.5,0
570.0,-3.48,4.0544,76.53,63.0,7.0,-18.0,0
570.25,4.92,4.1069,76.53,63.0,7.0,-18.0,0
570.5,-7.42,4.126107,76.53,63.0,7.0,-18.75,0
570.75,-0.06,4.112021,76.53,63.0,7.0,-17.375,0
571.0,-5.4,4.104339,76.7,63.25,6.875,-17.125,0
571.25,-3.46,4.142753,76.7,62.875,7.875,-18.375,0
571.5,-1.53,4.1709239999999985,76.7,62.5,6.75,-17.75,0
571.75,-4.68,4.156838,76.7,63.0,7.125,-18.5,0
572.0,1.46,4.131229,76.87,62.5,8.125,-19.0,0
572.25,28.79,4.087692,76.87,62.5,8.25,-19.125,0
572.5,9.12,4.033912,76.87,62.25,5.875,-16.75,0
572.75,4.03,3.980132,76.87,62.625,8.25,-20.375,0
573.0,14.49,3.978851,76.98,62.5,8.5,-19.75,0
573.25,3.06,3.955803,76.98,62.75,6.875,-19.0,0
573.5,3.32,3.912266,76.98,62.625,5.875,-18.75,0
573.75,12.97,3.885376,76.98,62.375,10.375,-20.875,0
574.0,4.13,3.867449,77.07,62.375,6.875,-18.25,0
574.25,0.84,3.849523000000002,77.07,63.0,5.25,-16.75,0
574.5,-6.0,3.86873,77.07,62.375,10.125,-21.0,0
574.75,3.59,3.89562,77.07,62.5,8.625,-20.0,0
575.0,-9.3,3.891778,77.15,63.0,4.0,-15.5,0
575.25,4.82,3.926352,77.15,62.625,9.375,-19.25,0
575.5,1.78,3.996778,77.15,62.625,8.0,-18.125,0
575.75,6.96,4.0556800000000015,77.15,62.75,6.125,-17.25,0
576.0,-6.29,4.076168,77.18,62.875,8.125,-19.375,0
576.25,0.24,4.090253,77.18,62.625,8.25,-18.875,0
576.5,-1.09,4.059522,77.18,63.0,6.375,-17.125,0
576.75,4.95,4.030071,77.18,63.25,7.875,-17.0,0
577.0,-4.52,3.973729,77.37,63.25,7.625,-16.375,0
577.25,-1.14,3.89562,77.37,63.25,7.0,-16.875,0
577.5,-6.88,3.820071,77.37,63.0,7.125,-16.625,0
577.75,8.09,3.770133,77.37,63.5,7.0,-16.75,0
578.0,-7.7,3.706109,77.55,63.25,7.0,-16.5,0
578.25,-10.81,3.653609,77.55,63.25,6.75,-16.875,0
578.5,-8.56,3.621597,77.55,63.125,6.5,-17.5,0
578.75,-0.91,3.658731,77.55,62.625,7.0,-18.5,0
579.0,1.25,3.698426,77.77,62.875,6.75,-18.625,0
579.25,15.44,3.724035,77.77,62.875,7.125,-18.875,0
579.5,-8.33,3.722755,77.77,63.125,7.0,-18.75,0
579.75,-27.29,3.732999,77.77,62.875,6.875,-17.375,0
580.0,-6.97,3.76373,77.93,62.875,7.0,-18.375,0
580.25,11.79,3.758608,77.93,62.875,7.0,-18.75,0
580.5,-10.74,3.740682,77.93,62.625,7.125,-18.125,0
580.75,6.96,3.793181,77.93,62.875,7.125,-18.5,0
581.0,0.62,3.932754,78.15,63.0,7.25,-18.875,0
581.25,-14.29,4.041595,78.15,62.75,7.375,-18.375,0
581.5,7.62,4.077448,78.15,62.5,7.25,-18.25,0
581.75,10.31,4.044156,78.15,62.625,7.125,-19.625,0
582.0,-2.16,3.990376,78.35,62.5,7.375,-19.875,0
582.25,3.23,3.927632,78.35,62.5,7.5,-18.5,0
582.5,0.02,3.925071,78.35,62.625,7.25,-18.75,0
582.75,-10.38,3.914827,78.35,62.75,7.5,-18.75,0
583.0,2.02,3.857206,78.55,62.75,7.125,-19.0,0
583.25,11.35,3.803425,78.55,62.625,7.0,-19.0,0
583.5,15.07,3.747084,78.55,62.75,7.0,-19.0,0
583.75,-18.43,3.693304,78.55,62.625,7.0,-18.875,0
584.0,6.97,3.666414,78.77,62.75,7.0,-19.0,0
584.25,2.62,3.668975,78.77,62.75,7.25,-18.875,0
584.5,-6.24,3.698426,78.77,62.5,7.625,-19.25,0
584.75,-5.02,3.712511,78.77,62.75,6.625,-17.5,0
585.0,-3.2,3.689462,78.95,63.25,5.75,-18.375,0
585.25,-0.67,3.68434,78.95,62.625,9.625,-19.625,0
585.5,-2.17,3.6728160000000014,78.95,62.75,5.5,-17.5,0
585.75,-1.78,3.634402,78.95,63.0,6.625,-17.375,0
586.0,4.89,3.643365,79.18,62.875,9.0,-18.875,0
586.25,1.98,3.73684,79.18,62.875,8.5,-17.875,0
586.5,-1.79,3.718913,79.18,62.625,5.75,-15.75,0
586.75,-0.3,3.68434,79.18,62.625,8.5,-20.0,0
587.0,2.86,3.665133,79.4,62.0,8.625,-19.875,0
587.25,0.84,3.65617,79.4,62.625,6.125,-18.875,0
587.5,1.9,3.65745,79.4,62.5,7.5,-19.125,0
587.75,-11.08,3.674097,79.4,62.375,8.125,-20.0,0
588.0,33.0,3.688182,79.65,62.375,7.0,-19.75,0
588.25,1.22,3.668975,79.65,62.375,7.5,-19.0,0
588.5,2.8,3.867449,79.65,62.25,7.75,-19.875,0
588.75,-7.48,3.966047,79.65,62.25,7.75,-19.75,0
589.0,-5.25,3.955803,79.92,62.5,7.375,-18.875,0
589.25,11.3,3.955803,79.92,62.5,7.0,-19.125,0
589.5,-2.62,3.849523000000002,79.92,62.375,7.0,-19.125,0
589.75,-33.96,3.793181,79.92,62.375,7.125,-19.25,0
590.0,4.79,3.747084,80.2,62.625,7.5,-19.25,0
590.25,24.74,3.644645,80.2,62.5,8.0,-19.0,0
590.5,15.44,3.625438,80.2,62.625,7.875,-18.75,0
590.75,0.39,3.607511,80.2,62.75,7.125,-18.5,0
591.0,0.29,3.619036,80.3,62.875,7.0,-17.75,0
591.25,-1.18,3.634402,80.3,63.0,7.0,-17.25,0
591.5,-1.34,3.649767,80.3,63.25,7.0,-17.125,0
591.75,-4.15,3.697145,80.3,63.0,7.125,-17.25,0
592.0,-10.88,3.773974,80.4,63.0,7.875,-17.875,0
592.25,-14.31,3.798303,80.4,63.0,7.75,-17.5,0
592.5,6.36,3.793181,80.4,63.125,7.5,-17.25,0
592.75,-17.98,3.775255000000002,80.4,63.25,7.0,-17.25,0
593.0,-19.83,3.800864,80.47,63.0,7.0,-16.5,0
593.25,11.15,3.79062,80.47,63.375,7.125,-16.625,0
593.5,16.5,3.767572,80.47,63.375,7.125,-16.875,0
593.75,2.25,3.724035,80.47,63.125,7.25,-17.5,0
594.0,-6.02,3.73684,80.53,63.125,7.0,-16.75,0
594.25,-12.83,3.731718,80.53,63.125,7.125,-16.875,0
594.5,15.42,3.725316,80.53,63.0,7.0,-16.75,0
594.75,0.45,3.703547,80.53,63.25,6.75,-16.625,0
595.0,-2.54,3.781657,80.63,63.0,7.25,-17.625,0
595.25,-8.58,3.786779,80.63,63.125,6.125,-17.375,0
595.5,2.11,3.765011,80.63,62.875,7.5,-18.0,0
595.75,3.54,3.752206,80.63,63.125,6.25,-16.875,0
596.0,-6.84,3.802145,80.65,62.875,7.875,-18.375,0
596.25,-9.9,3.805986,80.65,63.125,7.0,-19.25,0
596.5,-1.9,3.858486,80.65,63.125,7.0,-16.0,0
596.75,-7.36,4.0454360000000005,80.65,63.25,7.375,-17.5,0
597.0,1.21,4.150436,80.62,63.125,6.875,-17.875,0
597.25,-16.08,4.1837290000000005,80.62,62.75,6.625,-18.125,0
597.5,28.43,4.181168,80.62,62.75,6.875,-17.375,0
597.75,12.22,4.18885,80.62,63.0,6.5,-17.75,0
598.0,-13.73,4.13379,80.63,63.0,6.875,-17.5,0
598.25,-7.56,4.080009,80.63,63.125,6.875,-17.125,0
598.5,19.51,4.067205,80.63,63.625,6.75,-16.25,0
598.75,3.63,3.945559,80.63,63.5,6.375,-14.5,0
599.0,-7.31,3.840559,80.58,63.625,6.625,-17.0,0
599.25,-9.41,3.799584,80.58,63.125,6.875,-16.25,0
599.5,-25.8,3.754767,80.58,63.125,6.625,-16.375,0
599.75,-12.94,3.880254,80.58,63.5,6.375,-16.5,0
600.0,44.27,3.873852,80.57,63.125,6.75,-17.125,0
600.25,6.37,3.830315,80.57,63.25,6.5,-16.125,0
600.5,-2.65,3.846962,80.57,63.25,7.125,-16.25,0
600.75,-11.04,3.884096,80.57,63.375,7.0,-17.0,0
601.0,-16.7,3.92123,80.55,63.375,6.625,-17.0,0
601.25,0.08,3.931473,80.55,63.125,6.125,-16.5,0
601.5,1.98,3.951961,80.55,63.0,6.5,-17.25,0
601.75,-7.83,3.942998,80.55,63.0,6.625,-17.375,0
602.0,5.93,3.871291,80.52,63.25,6.5,-18.0,0
602.25,17.67,3.773974,80.52,63.0,6.625,-18.0,0
602.5,-8.59,3.749645,80.52,62.875,6.75,-17.375,0
602.75,-10.79,3.745804,80.52,63.125,7.0,-17.625,0
603.0,6.22,3.7445230000000014,80.48,63.125,7.125,-17.75,0
603.25,-11.46,3.73684,80.48,63.0,6.75,-17.625,0
603.5,2.2,3.726596,80.48,63.0,7.0,-18.0,0
603.75,5.33,3.718913,80.48,63.25,6.625,-17.0,0
604.0,-13.42,3.807267,80.45,63.25,6.625,-16.5,0
604.25,1.71,3.854645,80.45,63.25,6.5,-17.125,0
604.5,-9.38,3.844401,80.45,63.125,6.875,-17.25,0
604.75,4.56,3.822633,80.45,62.875,6.625,-17.75,0
605.0,4.82,3.757328,80.47,63.125,7.0,-17.375,0
605.25,-2.95,3.753486,80.47,63.25,6.875,-17.0,0
605.5,-25.87,3.770133,80.47,63.5,6.875,-16.375,0
605.75,-7.9,3.86873,80.47,63.5,6.5,-15.375,0
606.0,12.96,3.957083,80.47,63.375,6.125,-16.25,0
606.25,2.79,3.97629,80.47,63.0,6.25,-17.25,0
606.5,5.64,4.007022,80.47,62.75,7.0,-18.125,0
606.75,19.75,3.978851,80.47,63.0,7.125,-17.875,0
607.0,18.39,3.994217,80.38,63.0,7.0,-17.875,0
607.25,0.9,4.067205,80.38,63.125,7.0,-17.625,0
